   5.0000       1817
   5.0186       1859
   5.0372       1865
   5.0557       1937
   5.0743       1758
   5.0929       1796
   5.1115       1745
   5.1300       1722
   5.1486       1718
   5.1672       1748
   5.1858       1751
   5.2043       1675
   5.2229       1680
   5.2415       1721
   5.2601       1682
   5.2786       1708
   5.2972       1604
   5.3158       1623
   5.3344       1605
   5.3529       1581
   5.3715       1587
   5.3901       1605
   5.4087       1608
   5.4273       1573
   5.4458       1513
   5.4644       1611
   5.4830       1536
   5.5016       1574
   5.5201       1601
   5.5387       1526
   5.5573       1576
   5.5759       1479
   5.5944       1468
   5.6130       1509
   5.6316       1502
   5.6502       1583
   5.6687       1514
   5.6873       1439
   5.7059       1495
   5.7245       1459
   5.7430       1358
   5.7616       1478
   5.7802       1504
   5.7988       1406
   5.8174       1495
   5.8359       1395
   5.8545       1429
   5.8731       1484
   5.8917       1382
   5.9102       1419
   5.9288       1367
   5.9474       1420
   5.9660       1342
   5.9845       1352
   6.0031       1342
   6.0217       1324
   6.0403       1385
   6.0588       1339
   6.0774       1257
   6.0960       1333
   6.1146       1386
   6.1331       1279
   6.1517       1271
   6.1703       1310
   6.1889       1282
   6.2075       1254
   6.2260       1225
   6.2446       1271
   6.2632       1284
   6.2818       1269
   6.3003       1221
   6.3189       1226
   6.3375       1306
   6.3561       1298
   6.3746       1202
   6.3932       1225
   6.4118       1235
   6.4304       1202
   6.4489       1245
   6.4675       1174
   6.4861       1193
   6.5047       1213
   6.5232       1173
   6.5418       1202
   6.5604       1196
   6.5790       1195
   6.5976       1181
   6.6161       1213
   6.6347       1161
   6.6533       1205
   6.6719       1089
   6.6904       1115
   6.7090       1210
   6.7276       1124
   6.7462       1111
   6.7647       1152
   6.7833       1203
   6.8019       1163
   6.8205       1115
   6.8390       1132
   6.8576       1096
   6.8762       1132
   6.8948       1076
   6.9133       1056
   6.9319       1128
   6.9505       1123
   6.9691       1049
   6.9877       1051
   7.0062       1108
   7.0248       1106
   7.0434       1109
   7.0620       1064
   7.0805       1108
   7.0991       1083
   7.1177       1042
   7.1363       1089
   7.1548       1057
   7.1734       1071
   7.1920       1085
   7.2106       1126
   7.2291       1007
   7.2477       1102
   7.2663       1082
   7.2849       1086
   7.3034       1072
   7.3220       1004
   7.3406       1013
   7.3592       1045
   7.3778       1041
   7.3963       1031
   7.4149       1028
   7.4335       1110
   7.4521       1006
   7.4706       1072
   7.4892       1019
   7.5078       1056
   7.5264       1031
   7.5449       1037
   7.5635       1007
   7.5821       1093
   7.6007       1061
   7.6192       1024
   7.6378       1029
   7.6564       1052
   7.6750        991
   7.6935       1070
   7.7121       1058
   7.7307       1072
   7.7493       1026
   7.7679       1040
   7.7864       1025
   7.8050       1074
   7.8236       1027
   7.8422       1077
   7.8607        984
   7.8793       1037
   7.8979       1038
   7.9165       1028
   7.9350       1028
   7.9536       1076
   7.9722       1051
   7.9908        998
   8.0093       1009
   8.0279       1046
   8.0465        991
   8.0651       1056
   8.0836       1078
   8.1022       1045
   8.1208       1019
   8.1394        989
   8.1580       1017
   8.1765       1098
   8.1951       1071
   8.2137        997
   8.2323       1046
   8.2508       1078
   8.2694       1029
   8.2880       1044
   8.3066       1051
   8.3251       1046
   8.3437       1074
   8.3623       1015
   8.3809       1024
   8.3994       1029
   8.4180       1076
   8.4366       1019
   8.4552       1042
   8.4737       1051
   8.4923       1022
   8.5109       1040
   8.5295       1042
   8.5481       1066
   8.5666        986
   8.5852       1037
   8.6038       1034
   8.6224       1063
   8.6409        938
   8.6595       1071
   8.6781       1019
   8.6967        987
   8.7152        987
   8.7338       1028
   8.7524       1075
   8.7710       1057
   8.7895       1011
   8.8081       1057
   8.8267        999
   8.8453       1022
   8.8638       1009
   8.8824       1056
   8.9010       1083
   8.9196        998
   8.9382       1030
   8.9567       1007
   8.9753       1022
   8.9939       1003
   9.0125       1075
   9.0310       1011
   9.0496        998
   9.0682       1016
   9.0868       1068
   9.1053       1074
   9.1239        976
   9.1425        992
   9.1611       1000
   9.1796       1025
   9.1982       1046
   9.2168        943
   9.2354        974
   9.2539       1032
   9.2725        992
   9.2911       1061
   9.3097        994
   9.3283       1015
   9.3468       1033
   9.3654        971
   9.3840        984
   9.4026        987
   9.4211        983
   9.4397        992
   9.4583        974
   9.4769        982
   9.4954       1064
   9.5140        992
   9.5326        967
   9.5512        985
   9.5697       1012
   9.5883        983
   9.6069        982
   9.6255       1018
   9.6441        961
   9.6626       1028
   9.6812       1047
   9.6998       1046
   9.7184        984
   9.7369       1017
   9.7555        931
   9.7741        967
   9.7927        980
   9.8112       1014
   9.8298        980
   9.8484       1057
   9.8670        998
   9.8855        929
   9.9041       1026
   9.9227       1001
   9.9413        963
   9.9598        981
   9.9784        980
   9.9970        953
  10.0156       1012
  10.0342        945
  10.0527       1014
  10.0713        984
  10.0899       1037
  10.1085        936
  10.1270        917
  10.1456        991
  10.1642        973
  10.1828        960
  10.2013        946
  10.2199        980
  10.2385        920
  10.2571        990
  10.2756        967
  10.2942        944
  10.3128        945
  10.3314        939
  10.3499        927
  10.3685        929
  10.3871        942
  10.4057        960
  10.4243        907
  10.4428        956
  10.4614        910
  10.4800        950
  10.4986        961
  10.5171        957
  10.5357        928
  10.5543       1030
  10.5729        903
  10.5914        918
  10.6100        951
  10.6286        898
  10.6472        929
  10.6657        952
  10.6843        908
  10.7029        924
  10.7215        974
  10.7400        964
  10.7586        913
  10.7772        955
  10.7958        917
  10.8144        950
  10.8329        891
  10.8515        892
  10.8701        905
  10.8887        929
  10.9072        887
  10.9258        891
  10.9444        947
  10.9630        870
  10.9815        950
  11.0001        882
  11.0187        929
  11.0373        939
  11.0558        907
  11.0744        950
  11.0930        866
  11.1116        887
  11.1301        857
  11.1487        904
  11.1673        917
  11.1859        858
  11.2045        914
  11.2230        898
  11.2416        923
  11.2602        885
  11.2788        907
  11.2973        851
  11.3159        912
  11.3345        854
  11.3531        885
  11.3716        871
  11.3902        878
  11.4088        846
  11.4274        917
  11.4459        844
  11.4645        930
  11.4831        825
  11.5017        830
  11.5202        869
  11.5388        876
  11.5574        892
  11.5760        819
  11.5946        843
  11.6131        848
  11.6317        845
  11.6503        822
  11.6689        824
  11.6874        885
  11.7060        881
  11.7246        843
  11.7432        849
  11.7617        867
  11.7803        813
  11.7989        863
  11.8175        857
  11.8360        850
  11.8546        876
  11.8732        891
  11.8918        897
  11.9103        871
  11.9289        950
  11.9475       1006
  11.9661       1096
  11.9847       1051
  12.0032       1147
  12.0218       1123
  12.0404       1090
  12.0590       1008
  12.0775        958
  12.0961        925
  12.1147        840
  12.1333        865
  12.1518        832
  12.1704        784
  12.1890        832
  12.2076        775
  12.2261        819
  12.2447        840
  12.2633        804
  12.2819        824
  12.3004        852
  12.3190        826
  12.3376        806
  12.3562        795
  12.3748        815
  12.3933        812
  12.4119        828
  12.4305        753
  12.4491        779
  12.4676        777
  12.4862        825
  12.5048        806
  12.5234        758
  12.5419        773
  12.5605        810
  12.5791        795
  12.5977        773
  12.6162        793
  12.6348        763
  12.6534        772
  12.6720        777
  12.6905        762
  12.7091        809
  12.7277        831
  12.7463        810
  12.7649        800
  12.7834        737
  12.8020        794
  12.8206        805
  12.8392        746
  12.8577        750
  12.8763        758
  12.8949        785
  12.9135        786
  12.9320        768
  12.9506        790
  12.9692        777
  12.9878        716
  13.0063        788
  13.0249        772
  13.0435        754
  13.0621        763
  13.0806        733
  13.0992        795
  13.1178        718
  13.1364        737
  13.1550        719
  13.1735        785
  13.1921        764
  13.2107        740
  13.2293        735
  13.2478        743
  13.2664        757
  13.2850        739
  13.3036        739
  13.3221        685
  13.3407        739
  13.3593        732
  13.3779        756
  13.3964        701
  13.4150        752
  13.4336        722
  13.4522        700
  13.4707        710
  13.4893        709
  13.5079        712
  13.5265        751
  13.5451        720
  13.5636        718
  13.5822        731
  13.6008        717
  13.6194        697
  13.6379        720
  13.6565        722
  13.6751        737
  13.6937        682
  13.7122        727
  13.7308        704
  13.7494        685
  13.7680        731
  13.7865        733
  13.8051        732
  13.8237        683
  13.8423        702
  13.8608        727
  13.8794        725
  13.8980        673
  13.9166        746
  13.9352        759
  13.9537        684
  13.9723        712
  13.9909        718
  14.0095        671
  14.0280        683
  14.0466        701
  14.0652        673
  14.0838        722
  14.1023        637
  14.1209        704
  14.1395        695
  14.1581        709
  14.1766        714
  14.1952        689
  14.2138        761
  14.2324        690
  14.2509        692
  14.2695        711
  14.2881        670
  14.3067        709
  14.3253        675
  14.3438        632
  14.3624        711
  14.3810        726
  14.3996        692
  14.4181        703
  14.4367        707
  14.4553        685
  14.4739        689
  14.4924        716
  14.5110        645
  14.5296        701
  14.5482        665
  14.5667        688
  14.5853        691
  14.6039        648
  14.6225        684
  14.6410        647
  14.6596        694
  14.6782        682
  14.6968        687
  14.7154        648
  14.7339        665
  14.7525        660
  14.7711        683
  14.7897        674
  14.8082        671
  14.8268        642
  14.8454        707
  14.8640        675
  14.8825        643
  14.9011        685
  14.9197        689
  14.9383        694
  14.9568        683
  14.9754        679
  14.9940        659
  15.0126        693
  15.0311        647
  15.0497        636
  15.0683        655
  15.0869        642
  15.1055        655
  15.1240        703
  15.1426        673
  15.1612        676
  15.1798        672
  15.1983        659
  15.2169        656
  15.2355        671
  15.2541        669
  15.2726        692
  15.2912        652
  15.3098        663
  15.3284        689
  15.3469        641
  15.3655        649
  15.3841        655
  15.4027        604
  15.4212        703
  15.4398        701
  15.4584        643
  15.4770        670
  15.4956        621
  15.5141        611
  15.5327        666
  15.5513        644
  15.5699        663
  15.5884        627
  15.6070        610
  15.6256        648
  15.6442        742
  15.6627        606
  15.6813        636
  15.6999        649
  15.7185        661
  15.7370        647
  15.7556        668
  15.7742        619
  15.7928        660
  15.8113        636
  15.8299        674
  15.8485        677
  15.8671        662
  15.8857        642
  15.9042        673
  15.9228        666
  15.9414        673
  15.9600        706
  15.9785        673
  15.9971        648
  16.0157        642
  16.0343        636
  16.0528        642
  16.0714        656
  16.0900        674
  16.1086        673
  16.1271        658
  16.1457        559
  16.1643        653
  16.1829        679
  16.2014        682
  16.2200        644
  16.2386        674
  16.2572        628
  16.2758        671
  16.2943        648
  16.3129        667
  16.3315        680
  16.3501        662
  16.3686        690
  16.3872        671
  16.4058        662
  16.4244        693
  16.4429        621
  16.4615        647
  16.4801        624
  16.4987        627
  16.5172        688
  16.5358        698
  16.5544        663
  16.5730        659
  16.5915        696
  16.6101        675
  16.6287        643
  16.6473        659
  16.6659        680
  16.6844        675
  16.7030        659
  16.7216        641
  16.7402        628
  16.7587        698
  16.7773        657
  16.7959        671
  16.8145        673
  16.8330        641
  16.8516        651
  16.8702        601
  16.8888        649
  16.9073        637
  16.9259        654
  16.9445        652
  16.9631        619
  16.9816        683
  17.0002        648
  17.0188        630
  17.0374        662
  17.0560        591
  17.0745        680
  17.0931        621
  17.1117        612
  17.1303        626
  17.1488        609
  17.1674        646
  17.1860        664
  17.2046        674
  17.2231        634
  17.2417        691
  17.2603        644
  17.2789        652
  17.2974        656
  17.3160        682
  17.3346        656
  17.3532        660
  17.3717        672
  17.3903        668
  17.4089        633
  17.4275        664
  17.4461        662
  17.4646        655
  17.4832        622
  17.5018        667
  17.5204        630
  17.5389        704
  17.5575        633
  17.5761        668
  17.5947        660
  17.6132        680
  17.6318        666
  17.6504        663
  17.6690        650
  17.6875        700
  17.7061        625
  17.7247        668
  17.7433        671
  17.7618        660
  17.7804        651
  17.7990        663
  17.8176        665
  17.8362        697
  17.8547        636
  17.8733        649
  17.8919        656
  17.9105        698
  17.9290        663
  17.9476        638
  17.9662        658
  17.9848        627
  18.0033        683
  18.0219        710
  18.0405        651
  18.0591        621
  18.0776        595
  18.0962        712
  18.1148        650
  18.1334        650
  18.1519        656
  18.1705        613
  18.1891        708
  18.2077        701
  18.2263        634
  18.2448        662
  18.2634        648
  18.2820        677
  18.3006        660
  18.3191        660
  18.3377        660
  18.3563        638
  18.3749        677
  18.3934        691
  18.4120        633
  18.4306        631
  18.4492        646
  18.4677        651
  18.4863        639
  18.5049        689
  18.5235        616
  18.5420        674
  18.5606        691
  18.5792        659
  18.5978        621
  18.6164        670
  18.6349        693
  18.6535        631
  18.6721        590
  18.6907        700
  18.7092        666
  18.7278        693
  18.7464        658
  18.7650        665
  18.7835        699
  18.8021        710
  18.8207        693
  18.8393        689
  18.8578        711
  18.8764        720
  18.8950        709
  18.9136        656
  18.9322        653
  18.9507        660
  18.9693        659
  18.9879        675
  19.0065        669
  19.0250        712
  19.0436        707
  19.0622        658
  19.0808        687
  19.0993        664
  19.1179        672
  19.1365        690
  19.1551        704
  19.1736        652
  19.1922        669
  19.2108        649
  19.2294        674
  19.2479        637
  19.2665        713
  19.2851        700
  19.3037        638
  19.3223        662
  19.3408        679
  19.3594        685
  19.3780        651
  19.3966        645
  19.4151        685
  19.4337        653
  19.4523        699
  19.4709        633
  19.4894        651
  19.5080        691
  19.5266        697
  19.5452        677
  19.5637        667
  19.5823        680
  19.6009        627
  19.6195        639
  19.6380        687
  19.6566        701
  19.6752        704
  19.6938        670
  19.7124        686
  19.7309        679
  19.7495        628
  19.7681        631
  19.7867        701
  19.8052        676
  19.8238        670
  19.8424        657
  19.8610        607
  19.8795        619
  19.8981        630
  19.9167        669
  19.9353        700
  19.9538        650
  19.9724        686
  19.9910        714
  20.0096        670
  20.0281        704
  20.0467        647
  20.0653        663
  20.0839        694
  20.1025        708
  20.1210        656
  20.1396        673
  20.1582        675
  20.1768        673
  20.1953        635
  20.2139        669
  20.2325        650
  20.2511        679
  20.2696        717
  20.2882        706
  20.3068        639
  20.3254        664
  20.3439        633
  20.3625        657
  20.3811        653
  20.3997        635
  20.4182        654
  20.4368        662
  20.4554        692
  20.4740        651
  20.4926        683
  20.5111        654
  20.5297        673
  20.5483        663
  20.5669        607
  20.5854        624
  20.6040        635
  20.6226        669
  20.6412        642
  20.6597        651
  20.6783        640
  20.6969        647
  20.7155        671
  20.7340        631
  20.7526        668
  20.7712        677
  20.7898        643
  20.8083        719
  20.8269        716
  20.8455        617
  20.8641        636
  20.8827        696
  20.9012        620
  20.9198        629
  20.9384        676
  20.9570        669
  20.9755        643
  20.9941        655
  21.0127        602
  21.0313        672
  21.0498        645
  21.0684        688
  21.0870        689
  21.1056        631
  21.1241        726
  21.1427        713
  21.1613        694
  21.1799        656
  21.1984        648
  21.2170        669
  21.2356        645
  21.2542        702
  21.2728        648
  21.2913        638
  21.3099        669
  21.3285        687
  21.3471        673
  21.3656        664
  21.3842        660
  21.4028        672
  21.4214        628
  21.4399        695
  21.4585        688
  21.4771        708
  21.4957        640
  21.5142        672
  21.5328        663
  21.5514        690
  21.5700        675
  21.5885        682
  21.6071        688
  21.6257        662
  21.6443        652
  21.6629        723
  21.6814        725
  21.7000        731
  21.7186        677
  21.7372        661
  21.7557        672
  21.7743        671
  21.7929        666
  21.8115        698
  21.8300        621
  21.8486        663
  21.8672        623
  21.8858        696
  21.9043        650
  21.9229        695
  21.9415        626
  21.9601        701
  21.9786        663
  21.9972        693
  22.0158        719
  22.0344        691
  22.0530        694
  22.0715        662
  22.0901        643
  22.1087        651
  22.1273        671
  22.1458        646
  22.1644        661
  22.1830        648
  22.2016        662
  22.2201        674
  22.2387        675
  22.2573        682
  22.2759        658
  22.2944        671
  22.3130        695
  22.3316        705
  22.3502        694
  22.3687        741
  22.3873        737
  22.4059        800
  22.4245        799
  22.4431        762
  22.4616        787
  22.4802        782
  22.4988        756
  22.5174        717
  22.5359        754
  22.5545        662
  22.5731        666
  22.5917        681
  22.6102        682
  22.6288        723
  22.6474        690
  22.6660        672
  22.6845        708
  22.7031        682
  22.7217        718
  22.7403        679
  22.7588        752
  22.7774        709
  22.7960        713
  22.8146        727
  22.8332        738
  22.8517        794
  22.8703        898
  22.8889        850
  22.9075        973
  22.9260       1063
  22.9446       1398
  22.9632       1615
  22.9818       1721
  23.0003       1707
  23.0189       1476
  23.0375       1285
  23.0561       1223
  23.0746        978
  23.0932        892
  23.1118        824
  23.1304        770
  23.1489        735
  23.1675        723
  23.1861        749
  23.2047        747
  23.2233        746
  23.2418        771
  23.2604        823
  23.2790        798
  23.2976        815
  23.3161        736
  23.3347        802
  23.3533        766
  23.3719        731
  23.3904        721
  23.4090        684
  23.4276        679
  23.4462        677
  23.4647        667
  23.4833        694
  23.5019        702
  23.5205        646
  23.5390        637
  23.5576        681
  23.5762        654
  23.5948        675
  23.6134        650
  23.6319        625
  23.6505        673
  23.6691        673
  23.6877        710
  23.7062        706
  23.7248        654
  23.7434        654
  23.7620        648
  23.7805        682
  23.7991        664
  23.8177        663
  23.8363        725
  23.8548        660
  23.8734        786
  23.8920        822
  23.9106        846
  23.9291        890
  23.9477        883
  23.9663        821
  23.9849        807
  24.0035        824
  24.0220        800
  24.0406        827
  24.0592        862
  24.0778        968
  24.0963       1005
  24.1149       1041
  24.1335       1001
  24.1521       1007
  24.1706        970
  24.1892        866
  24.2078        792
  24.2264        733
  24.2449        674
  24.2635        684
  24.2821        657
  24.3007        689
  24.3192        658
  24.3378        708
  24.3564        667
  24.3750        713
  24.3936        657
  24.4121        642
  24.4307        632
  24.4493        624
  24.4679        667
  24.4864        667
  24.5050        675
  24.5236        607
  24.5422        630
  24.5607        637
  24.5793        619
  24.5979        656
  24.6165        668
  24.6350        694
  24.6536        624
  24.6722        612
  24.6908        604
  24.7093        618
  24.7279        669
  24.7465        621
  24.7651        655
  24.7837        629
  24.8022        616
  24.8208        605
  24.8394        656
  24.8580        625
  24.8765        674
  24.8951        655
  24.9137        642
  24.9323        630
  24.9508        653
  24.9694        620
  24.9880        636
  25.0066        635
  25.0251        648
  25.0437        641
  25.0623        686
  25.0809        663
  25.0994        693
  25.1180        672
  25.1366        578
  25.1552        669
  25.1738        582
  25.1923        605
  25.2109        618
  25.2295        674
  25.2481        595
  25.2666        649
  25.2852        588
  25.3038        645
  25.3224        644
  25.3409        657
  25.3595        640
  25.3781        646
  25.3967        636
  25.4152        635
  25.4338        606
  25.4524        653
  25.4710        645
  25.4895        662
  25.5081        653
  25.5267        644
  25.5453        639
  25.5639        621
  25.5824        652
  25.6010        625
  25.6196        629
  25.6382        624
  25.6567        667
  25.6753        658
  25.6939        633
  25.7125        651
  25.7310        660
  25.7496        646
  25.7682        613
  25.7868        599
  25.8053        653
  25.8239        680
  25.8425        639
  25.8611        665
  25.8796        688
  25.8982        654
  25.9168        677
  25.9354        714
  25.9540        702
  25.9725        786
  25.9911        782
  26.0097        760
  26.0283        694
  26.0468        752
  26.0654        687
  26.0840        728
  26.1026        692
  26.1211        664
  26.1397        711
  26.1583        729
  26.1769        710
  26.1954        660
  26.2140        617
  26.2326        696
  26.2512        690
  26.2697        679
  26.2883        676
  26.3069        628
  26.3255        622
  26.3441        669
  26.3626        632
  26.3812        619
  26.3998        638
  26.4184        597
  26.4369        655
  26.4555        614
  26.4741        571
  26.4927        639
  26.5112        578
  26.5298        656
  26.5484        572
  26.5670        630
  26.5855        603
  26.6041        621
  26.6227        618
  26.6413        568
  26.6598        631
  26.6784        645
  26.6970        577
  26.7156        610
  26.7342        607
  26.7527        678
  26.7713        600
  26.7899        623
  26.8085        632
  26.8270        642
  26.8456        621
  26.8642        682
  26.8828        567
  26.9013        592
  26.9199        605
  26.9385        585
  26.9571        588
  26.9756        600
  26.9942        617
  27.0128        591
  27.0314        565
  27.0499        608
  27.0685        639
  27.0871        590
  27.1057        590
  27.1243        614
  27.1428        620
  27.1614        628
  27.1800        607
  27.1986        603
  27.2171        597
  27.2357        599
  27.2543        569
  27.2729        576
  27.2914        567
  27.3100        587
  27.3286        563
  27.3472        570
  27.3657        588
  27.3843        565
  27.4029        625
  27.4215        536
  27.4400        575
  27.4586        542
  27.4772        571
  27.4958        554
  27.5144        609
  27.5329        552
  27.5515        598
  27.5701        592
  27.5887        567
  27.6072        611
  27.6258        608
  27.6444        631
  27.6630        555
  27.6815        572
  27.7001        581
  27.7187        609
  27.7373        603
  27.7558        567
  27.7744        607
  27.7930        586
  27.8116        612
  27.8301        618
  27.8487        576
  27.8673        577
  27.8859        609
  27.9045        548
  27.9230        586
  27.9416        545
  27.9602        582
  27.9788        573
  27.9973        562
  28.0159        579
  28.0345        589
  28.0531        569
  28.0716        583
  28.0902        588
  28.1088        566
  28.1274        589
  28.1459        579
  28.1645        574
  28.1831        615
  28.2017        571
  28.2203        564
  28.2388        589
  28.2574        563
  28.2760        557
  28.2946        547
  28.3131        600
  28.3317        558
  28.3503        592
  28.3689        639
  28.3874        633
  28.4060        668
  28.4246        681
  28.4432        802
  28.4617        816
  28.4803        811
  28.4989        781
  28.5175        827
  28.5360        835
  28.5546        799
  28.5732        726
  28.5918        778
  28.6104        742
  28.6289        712
  28.6475        671
  28.6661        647
  28.6847        638
  28.7032        682
  28.7218        620
  28.7404        603
  28.7590        617
  28.7775        617
  28.7961        579
  28.8147        555
  28.8333        574
  28.8518        591
  28.8704        550
  28.8890        626
  28.9076        588
  28.9261        569
  28.9447        654
  28.9633        624
  28.9819        690
  29.0005        669
  29.0190        627
  29.0376        637
  29.0562        643
  29.0748        686
  29.0933        610
  29.1119        606
  29.1305        617
  29.1491        583
  29.1676        596
  29.1862        597
  29.2048        541
  29.2234        580
  29.2419        520
  29.2605        503
  29.2791        505
  29.2977        570
  29.3162        565
  29.3348        562
  29.3534        534
  29.3720        553
  29.3906        537
  29.4091        582
  29.4277        523
  29.4463        566
  29.4649        567
  29.4834        550
  29.5020        534
  29.5206        530
  29.5392        544
  29.5577        562
  29.5763        543
  29.5949        560
  29.6135        629
  29.6320        633
  29.6506        658
  29.6692        648
  29.6878        628
  29.7063        618
  29.7249        655
  29.7435        637
  29.7621        625
  29.7807        599
  29.7992        622
  29.8178        562
  29.8364        588
  29.8550        581
  29.8735        590
  29.8921        573
  29.9107        561
  29.9293        546
  29.9478        585
  29.9664        523
  29.9850        531
  30.0036        521
  30.0221        534
  30.0407        518
  30.0593        562
  30.0779        507
  30.0964        544
  30.1150        557
  30.1336        521
  30.1522        551
  30.1708        586
  30.1893        573
  30.2079        529
  30.2265        547
  30.2451        546
  30.2636        552
  30.2822        572
  30.3008        581
  30.3194        583
  30.3379        682
  30.3565        734
  30.3751        778
  30.3937        826
  30.4122        838
  30.4308        818
  30.4494        825
  30.4680        812
  30.4865        781
  30.5051        742
  30.5237        690
  30.5423        711
  30.5609        684
  30.5794        654
  30.5980        636
  30.6166        633
  30.6352        578
  30.6537        574
  30.6723        552
  30.6909        559
  30.7095        533
  30.7280        537
  30.7466        517
  30.7652        510
  30.7838        556
  30.8023        556
  30.8209        568
  30.8395        533
  30.8581        542
  30.8766        546
  30.8952        495
  30.9138        485
  30.9324        532
  30.9510        517
  30.9695        528
  30.9881        531
  31.0067        564
  31.0253        551
  31.0438        544
  31.0624        546
  31.0810        560
  31.0996        566
  31.1181        514
  31.1367        547
  31.1553        524
  31.1739        548
  31.1924        586
  31.2110        514
  31.2296        557
  31.2482        501
  31.2667        523
  31.2853        581
  31.3039        602
  31.3225        613
  31.3411        639
  31.3596        622
  31.3782        635
  31.3968        596
  31.4154        608
  31.4339        607
  31.4525        683
  31.4711        601
  31.4897        598
  31.5082        524
  31.5268        577
  31.5454        556
  31.5640        508
  31.5825        538
  31.6011        570
  31.6197        562
  31.6383        566
  31.6568        523
  31.6754        561
  31.6940        562
  31.7126        552
  31.7312        537
  31.7497        572
  31.7683        555
  31.7869        523
  31.8055        526
  31.8240        469
  31.8426        552
  31.8612        543
  31.8798        534
  31.8983        548
  31.9169        566
  31.9355        648
  31.9541        709
  31.9726        799
  31.9912        939
  32.0098       1214
  32.0284       1396
  32.0469       1240
  32.0655       1079
  32.0841        967
  32.1027       1035
  32.1213        990
  32.1398        764
  32.1584        749
  32.1770        652
  32.1956        626
  32.2141        540
  32.2327        582
  32.2513        578
  32.2699        537
  32.2884        548
  32.3070        601
  32.3256        663
  32.3442        807
  32.3627        749
  32.3813        699
  32.3999        700
  32.4185        683
  32.4370        651
  32.4556        650
  32.4742        643
  32.4928        624
  32.5114        626
  32.5299        600
  32.5485        629
  32.5671        621
  32.5857        740
  32.6042        740
  32.6228        886
  32.6414       1045
  32.6600       1366
  32.6785       1675
  32.6971       1868
  32.7157       1898
  32.7343       1810
  32.7528       1648
  32.7714       1559
  32.7900       1408
  32.8086       1218
  32.8271        986
  32.8457        873
  32.8643        764
  32.8829        680
  32.9015        613
  32.9200        616
  32.9386        639
  32.9572        665
  32.9758        672
  32.9943        696
  33.0129        626
  33.0315        671
  33.0501        642
  33.0686        657
  33.0872        592
  33.1058        607
  33.1244        615
  33.1429        615
  33.1615        573
  33.1801        603
  33.1987        616
  33.2172        537
  33.2358        570
  33.2544        543
  33.2730        547
  33.2916        584
  33.3101        602
  33.3287        607
  33.3473        635
  33.3659        588
  33.3844        649
  33.4030        739
  33.4216        843
  33.4402       1075
  33.4587       1338
  33.4773       1828
  33.4959       2537
  33.5145       3085
  33.5330       3285
  33.5516       3216
  33.5702       2820
  33.5888       2564
  33.6073       2340
  33.6259       2064
  33.6445       1714
  33.6631       1328
  33.6817       1086
  33.7002        875
  33.7188        753
  33.7374        709
  33.7560        606
  33.7745        566
  33.7931        619
  33.8117        573
  33.8303        587
  33.8488        519
  33.8674        562
  33.8860        575
  33.9046        544
  33.9231        558
  33.9417        495
  33.9603        477
  33.9789        517
  33.9974        510
  34.0160        522
  34.0346        498
  34.0532        500
  34.0718        490
  34.0903        492
  34.1089        514
  34.1275        531
  34.1461        449
  34.1646        467
  34.1832        506
  34.2018        505
  34.2204        473
  34.2389        426
  34.2575        450
  34.2761        466
  34.2947        446
  34.3132        462
  34.3318        496
  34.3504        445
  34.3690        461
  34.3875        469
  34.4061        477
  34.4247        447
  34.4433        459
  34.4619        512
  34.4804        445
  34.4990        467
  34.5176        534
  34.5362        494
  34.5547        486
  34.5733        484
  34.5919        495
  34.6105        478
  34.6290        481
  34.6476        497
  34.6662        482
  34.6848        441
  34.7033        475
  34.7219        491
  34.7405        456
  34.7591        490
  34.7776        451
  34.7962        434
  34.8148        523
  34.8334        478
  34.8520        464
  34.8705        454
  34.8891        475
  34.9077        484
  34.9263        479
  34.9448        499
  34.9634        478
  34.9820        485
  35.0006        493
  35.0191        535
  35.0377        483
  35.0563        507
  35.0749        476
  35.0934        470
  35.1120        436
  35.1306        443
  35.1492        480
  35.1677        458
  35.1863        484
  35.2049        454
  35.2235        447
  35.2421        496
  35.2606        454
  35.2792        442
  35.2978        468
  35.3164        443
  35.3349        448
  35.3535        436
  35.3721        472
  35.3907        490
  35.4092        468
  35.4278        510
  35.4464        494
  35.4650        520
  35.4835        511
  35.5021        564
  35.5207        543
  35.5393        643
  35.5578        580
  35.5764        651
  35.5950        666
  35.6136        638
  35.6322        700
  35.6507        649
  35.6693        615
  35.6879        556
  35.7065        583
  35.7250        591
  35.7436        529
  35.7622        517
  35.7808        498
  35.7993        477
  35.8179        511
  35.8365        517
  35.8551        442
  35.8736        458
  35.8922        423
  35.9108        499
  35.9294        430
  35.9479        418
  35.9665        438
  35.9851        457
  36.0037        436
  36.0223        473
  36.0408        455
  36.0594        449
  36.0780        489
  36.0966        439
  36.1151        447
  36.1337        490
  36.1523        453
  36.1709        477
  36.1894        464
  36.2080        475
  36.2266        497
  36.2452        493
  36.2637        462
  36.2823        466
  36.3009        436
  36.3195        455
  36.3380        446
  36.3566        452
  36.3752        429
  36.3938        474
  36.4124        464
  36.4309        511
  36.4495        464
  36.4681        501
  36.4867        501
  36.5052        498
  36.5238        504
  36.5424        476
  36.5610        465
  36.5795        423
  36.5981        491
  36.6167        472
  36.6353        458
  36.6538        449
  36.6724        466
  36.6910        464
  36.7096        453
  36.7281        482
  36.7467        392
  36.7653        452
  36.7839        446
  36.8025        459
  36.8210        452
  36.8396        450
  36.8582        485
  36.8768        409
  36.8953        483
  36.9139        469
  36.9325        463
  36.9511        542
  36.9696        537
  36.9882        511
  37.0068        525
  37.0254        511
  37.0439        503
  37.0625        527
  37.0811        501
  37.0997        505
  37.1182        475
  37.1368        466
  37.1554        447
  37.1740        488
  37.1926        477
  37.2111        456
  37.2297        443
  37.2483        471
  37.2669        459
  37.2854        442
  37.3040        439
  37.3226        456
  37.3412        424
  37.3597        427
  37.3783        456
  37.3969        460
  37.4155        436
  37.4340        403
  37.4526        472
  37.4712        459
  37.4898        421
  37.5084        428
  37.5269        409
  37.5455        459
  37.5641        420
  37.5827        402
  37.6012        440
  37.6198        395
  37.6384        397
  37.6570        413
  37.6755        428
  37.6941        386
  37.7127        437
  37.7313        426
  37.7498        416
  37.7684        477
  37.7870        413
  37.8056        400
  37.8241        436
  37.8427        414
  37.8613        427
  37.8799        398
  37.8985        375
  37.9170        435
  37.9356        446
  37.9542        393
  37.9728        431
  37.9913        434
  38.0099        465
  38.0285        400
  38.0471        413
  38.0656        409
  38.0842        420
  38.1028        444
  38.1214        434
  38.1399        441
  38.1585        414
  38.1771        404
  38.1957        431
  38.2142        441
  38.2328        406
  38.2514        430
  38.2700        420
  38.2886        437
  38.3071        469
  38.3257        454
  38.3443        398
  38.3629        451
  38.3814        445
  38.4000        469
  38.4186        434
  38.4372        428
  38.4557        442
  38.4743        418
  38.4929        427
  38.5115        458
  38.5300        422
  38.5486        423
  38.5672        442
  38.5858        471
  38.6043        463
  38.6229        461
  38.6415        490
  38.6601        496
  38.6787        488
  38.6972        516
  38.7158        538
  38.7344        601
  38.7530        656
  38.7715        638
  38.7901        721
  38.8087        608
  38.8273        609
  38.8458        619
  38.8644        612
  38.8830        574
  38.9016        573
  38.9201        566
  38.9387        537
  38.9573        489
  38.9759        494
  38.9944        492
  39.0130        526
  39.0316        465
  39.0502        442
  39.0688        486
  39.0873        453
  39.1059        424
  39.1245        402
  39.1431        456
  39.1616        413
  39.1802        436
  39.1988        421
  39.2174        439
  39.2359        424
  39.2545        423
  39.2731        404
  39.2917        433
  39.3102        451
  39.3288        420
  39.3474        411
  39.3660        407
  39.3845        428
  39.4031        407
  39.4217        426
  39.4403        411
  39.4589        441
  39.4774        434
  39.4960        414
  39.5146        418
  39.5332        408
  39.5517        384
  39.5703        401
  39.5889        426
  39.6075        419
  39.6260        414
  39.6446        405
  39.6632        415
  39.6818        413
  39.7003        393
  39.7189        417
  39.7375        400
  39.7561        417
  39.7746        396
  39.7932        448
  39.8118        411
  39.8304        410
  39.8490        404
  39.8675        402
  39.8861        400
  39.9047        405
  39.9233        412
  39.9418        421
  39.9604        371
  39.9790        400
  39.9976        421
  40.0161        440
  40.0347        416
  40.0533        401
  40.0719        390
  40.0904        405
  40.1090        440
  40.1276        431
  40.1462        406
  40.1647        406
  40.1833        420
  40.2019        414
  40.2205        407
  40.2391        419
  40.2576        375
  40.2762        390
  40.2948        410
  40.3134        441
  40.3319        390
  40.3505        406
  40.3691        401
  40.3877        414
  40.4062        430
  40.4248        442
  40.4434        412
  40.4620        435
  40.4805        441
  40.4991        426
  40.5177        446
  40.5363        407
  40.5548        462
  40.5734        440
  40.5920        456
  40.6106        458
  40.6292        487
  40.6477        427
  40.6663        429
  40.6849        456
  40.7035        464
  40.7220        459
  40.7406        442
  40.7592        478
  40.7778        457
  40.7963        471
  40.8149        440
  40.8335        454
  40.8521        474
  40.8706        515
  40.8892        508
  40.9078        537
  40.9264        559
  40.9449        663
  40.9635        795
  40.9821       1036
  41.0007       1214
  41.0193       1264
  41.0378       1176
  41.0564       1184
  41.0750       1119
  41.0936       1067
  41.1121        911
  41.1307        914
  41.1493        921
  41.1679        757
  41.1864        638
  41.2050        583
  41.2236        559
  41.2422        512
  41.2607        452
  41.2793        412
  41.2979        468
  41.3165        417
  41.3350        433
  41.3536        457
  41.3722        407
  41.3908        398
  41.4094        458
  41.4279        426
  41.4465        413
  41.4651        420
  41.4837        407
  41.5022        425
  41.5208        409
  41.5394        374
  41.5580        426
  41.5765        430
  41.5951        393
  41.6137        396
  41.6323        399
  41.6508        389
  41.6694        448
  41.6880        421
  41.7066        395
  41.7251        409
  41.7437        397
  41.7623        429
  41.7809        433
  41.7995        426
  41.8180        402
  41.8366        375
  41.8552        423
  41.8738        421
  41.8923        419
  41.9109        438
  41.9295        422
  41.9481        415
  41.9666        414
  41.9852        439
  42.0038        364
  42.0224        391
  42.0409        414
  42.0595        376
  42.0781        399
  42.0967        432
  42.1152        417
  42.1338        399
  42.1524        412
  42.1710        380
  42.1896        410
  42.2081        384
  42.2267        407
  42.2453        424
  42.2639        411
  42.2824        391
  42.3010        382
  42.3196        442
  42.3382        414
  42.3567        385
  42.3753        407
  42.3939        420
  42.4125        431
  42.4310        417
  42.4496        418
  42.4682        449
  42.4868        405
  42.5053        405
  42.5239        389
  42.5425        406
  42.5611        409
  42.5797        456
  42.5982        416
  42.6168        382
  42.6354        384
  42.6540        417
  42.6725        408
  42.6911        389
  42.7097        405
  42.7283        405
  42.7468        432
  42.7654        432
  42.7840        427
  42.8026        478
  42.8211        423
  42.8397        453
  42.8583        448
  42.8769        452
  42.8954        461
  42.9140        463
  42.9326        481
  42.9512        436
  42.9698        444
  42.9883        430
  43.0069        458
  43.0255        426
  43.0441        499
  43.0626        453
  43.0812        417
  43.0998        457
  43.1184        420
  43.1369        382
  43.1555        428
  43.1741        377
  43.1927        415
  43.2112        410
  43.2298        404
  43.2484        393
  43.2670        422
  43.2855        424
  43.3041        431
  43.3227        439
  43.3413        397
  43.3599        423
  43.3784        428
  43.3970        410
  43.4156        435
  43.4342        398
  43.4527        432
  43.4713        451
  43.4899        485
  43.5085        505
  43.5270        530
  43.5456        519
  43.5642        472
  43.5828        510
  43.6013        507
  43.6199        485
  43.6385        479
  43.6571        467
  43.6756        460
  43.6942        405
  43.7128        437
  43.7314        401
  43.7500        448
  43.7685        418
  43.7871        435
  43.8057        398
  43.8243        430
  43.8428        412
  43.8614        411
  43.8800        381
  43.8986        419
  43.9171        403
  43.9357        388
  43.9543        432
  43.9729        419
  43.9914        420
  44.0100        437
  44.0286        366
  44.0472        424
  44.0657        397
  44.0843        447
  44.1029        419
  44.1215        432
  44.1401        421
  44.1586        432
  44.1772        416
  44.1958        425
  44.2144        410
  44.2329        362
  44.2515        417
  44.2701        421
  44.2887        483
  44.3072        430
  44.3258        417
  44.3444        467
  44.3630        424
  44.3815        416
  44.4001        419
  44.4187        407
  44.4373        464
  44.4558        425
  44.4744        411
  44.4930        471
  44.5116        441
  44.5302        466
  44.5487        507
  44.5673        521
  44.5859        499
  44.6045        532
  44.6230        521
  44.6416        470
  44.6602        473
  44.6788        496
  44.6973        450
  44.7159        411
  44.7345        445
  44.7531        420
  44.7716        408
  44.7902        401
  44.8088        406
  44.8274        426
  44.8459        427
  44.8645        431
  44.8831        412
  44.9017        376
  44.9203        413
  44.9388        372
  44.9574        405
  44.9760        452
  44.9946        421
  45.0131        388
  45.0317        380
  45.0503        419
  45.0689        411
  45.0874        408
  45.1060        385
  45.1246        373
  45.1432        397
  45.1617        402
  45.1803        380
  45.1989        402
  45.2175        441
  45.2360        378
  45.2546        410
  45.2732        409
  45.2918        422
  45.3104        384
  45.3289        409
  45.3475        416
  45.3661        405
  45.3847        402
  45.4032        476
  45.4218        495
  45.4404        451
  45.4590        447
  45.4775        427
  45.4961        417
  45.5147        425
  45.5333        459
  45.5518        443
  45.5704        424
  45.5890        433
  45.6076        430
  45.6261        417
  45.6447        442
  45.6633        438
  45.6819        472
  45.7005        482
  45.7190        438
  45.7376        467
  45.7562        489
  45.7748        438
  45.7933        485
  45.8119        534
  45.8305        497
  45.8491        501
  45.8676        478
  45.8862        423
  45.9048        450
  45.9234        404
  45.9419        452
  45.9605        439
  45.9791        400
  45.9977        385
  46.0162        420
  46.0348        442
  46.0534        451
  46.0720        440
  46.0906        433
  46.1091        420
  46.1277        397
  46.1463        437
  46.1649        402
  46.1834        432
  46.2020        384
  46.2206        410
  46.2392        431
  46.2577        428
  46.2763        414
  46.2949        406
  46.3135        416
  46.3320        459
  46.3506        527
  46.3692        572
  46.3878        548
  46.4063        589
  46.4249        536
  46.4435        517
  46.4621        479
  46.4807        517
  46.4992        558
  46.5178        556
  46.5364        470
  46.5550        472
  46.5735        496
  46.5921        489
  46.6107        460
  46.6293        474
  46.6478        477
  46.6664        478
  46.6850        485
  46.7036        479
  46.7221        499
  46.7407        535
  46.7593        556
  46.7779        522
  46.7965        685
  46.8150        623
  46.8336        737
  46.8522        859
  46.8708       1048
  46.8893       1145
  46.9079       1213
  46.9265       1136
  46.9451       1105
  46.9636        971
  46.9822        859
  47.0008        907
  47.0194        907
  47.0379        768
  47.0565        803
  47.0751        714
  47.0937        644
  47.1122        531
  47.1308        541
  47.1494        508
  47.1680        441
  47.1866        431
  47.2051        413
  47.2237        463
  47.2423        436
  47.2609        446
  47.2794        426
  47.2980        440
  47.3166        413
  47.3352        416
  47.3537        407
  47.3723        426
  47.3909        399
  47.4095        424
  47.4280        470
  47.4466        388
  47.4652        448
  47.4838        428
  47.5023        422
  47.5209        434
  47.5395        394
  47.5581        418
  47.5767        414
  47.5952        422
  47.6138        447
  47.6324        351
  47.6510        441
  47.6695        447
  47.6881        396
  47.7067        403
  47.7253        400
  47.7438        415
  47.7624        411
  47.7810        382
  47.7996        392
  47.8181        434
  47.8367        463
  47.8553        459
  47.8739        407
  47.8924        435
  47.9110        430
  47.9296        403
  47.9482        403
  47.9668        425
  47.9853        427
  48.0039        387
  48.0225        414
  48.0411        415
  48.0596        414
  48.0782        401
  48.0968        425
  48.1154        424
  48.1339        388
  48.1525        467
  48.1711        445
  48.1897        408
  48.2082        454
  48.2268        424
  48.2454        412
  48.2640        398
  48.2825        423
  48.3011        386
  48.3197        429
  48.3383        397
  48.3569        409
  48.3754        429
  48.3940        397
  48.4126        392
  48.4312        450
  48.4497        440
  48.4683        426
  48.4869        405
  48.5055        422
  48.5240        389
  48.5426        442
  48.5612        493
  48.5798        479
  48.5983        500
  48.6169        484
  48.6355        497
  48.6541        461
  48.6726        416
  48.6912        478
  48.7098        494
  48.7284        493
  48.7470        502
  48.7655        534
  48.7841        501
  48.8027        471
  48.8213        495
  48.8398        475
  48.8584        489
  48.8770        427
  48.8956        451
  48.9141        438
  48.9327        443
  48.9513        392
  48.9699        473
  48.9884        437
  49.0070        433
  49.0256        421
  49.0442        446
  49.0627        426
  49.0813        410
  49.0999        445
  49.1185        439
  49.1371        437
  49.1556        460
  49.1742        438
  49.1928        459
  49.2114        451
  49.2299        485
  49.2485        499
  49.2671        513
  49.2857        557
  49.3042        579
  49.3228        652
  49.3414        594
  49.3600        602
  49.3785        602
  49.3971        528
  49.4157        481
  49.4343        534
  49.4528        509
  49.4714        517
  49.4900        513
  49.5086        477
  49.5272        475
  49.5457        404
  49.5643        424
  49.5829        405
  49.6015        404
  49.6200        431
  49.6386        404
  49.6572        396
  49.6758        397
  49.6943        413
  49.7129        397
  49.7315        375
  49.7501        363
  49.7686        386
  49.7872        412
  49.8058        424
  49.8244        424
  49.8429        406
  49.8615        375
  49.8801        395
  49.8987        467
  49.9173        411
  49.9358        445
  49.9544        464
  49.9730        452
  49.9916        420
  50.0101        445
  50.0287        480
  50.0473        424
  50.0659        451
  50.0844        447
  50.1030        447
  50.1216        447
  50.1402        458
  50.1587        428
  50.1773        407
  50.1959        429
  50.2145        438
  50.2330        423
  50.2516        422
  50.2702        415
  50.2888        417
  50.3074        434
  50.3259        447
  50.3445        430
  50.3631        451
  50.3817        443
  50.4002        436
  50.4188        417
  50.4374        416
  50.4560        417
  50.4745        432
  50.4931        470
  50.5117        461
  50.5303        483
  50.5488        465
  50.5674        435
  50.5860        461
  50.6046        435
  50.6231        388
  50.6417        463
  50.6603        436
  50.6789        454
  50.6975        448
  50.7160        433
  50.7346        395
  50.7532        429
  50.7718        362
  50.7903        441
  50.8089        410
  50.8275        408
  50.8461        398
  50.8646        444
  50.8832        389
  50.9018        410
  50.9204        409
  50.9389        428
  50.9575        396
  50.9761        425
  50.9947        394
  51.0132        431
  51.0318        432
  51.0504        442
  51.0690        451
  51.0876        451
  51.1061        453
  51.1247        398
  51.1433        450
  51.1619        440
  51.1804        414
  51.1990        468
  51.2176        453
  51.2362        436
  51.2547        423
  51.2733        448
  51.2919        422
  51.3105        445
  51.3290        445
  51.3476        430
  51.3662        444
  51.3848        443
  51.4033        414
  51.4219        443
  51.4405        424
  51.4591        424
  51.4777        393
  51.4962        392
  51.5148        414
  51.5334        419
  51.5520        383
  51.5705        447
  51.5891        406
  51.6077        446
  51.6263        383
  51.6448        451
  51.6634        389
  51.6820        456
  51.7006        403
  51.7191        387
  51.7377        421
  51.7563        423
  51.7749        437
  51.7934        398
  51.8120        405
  51.8306        413
  51.8492        393
  51.8678        379
  51.8863        367
  51.9049        419
  51.9235        374
  51.9421        417
  51.9606        394
  51.9792        389
  51.9978        378
  52.0164        372
  52.0349        414
  52.0535        433
  52.0721        374
  52.0907        413
  52.1092        416
  52.1278        377
  52.1464        380
  52.1650        358
  52.1835        399
  52.2021        421
  52.2207        417
  52.2393        408
  52.2579        386
  52.2764        415
  52.2950        409
  52.3136        412
  52.3322        419
  52.3507        406
  52.3693        433
  52.3879        438
  52.4065        424
  52.4250        415
  52.4436        438
  52.4622        431
  52.4808        433
  52.4993        463
  52.5179        434
  52.5365        443
  52.5551        430
  52.5736        499
  52.5922        441
  52.6108        491
  52.6294        498
  52.6480        502
  52.6665        484
  52.6851        466
  52.7037        477
  52.7223        513
  52.7408        536
  52.7594        569
  52.7780        565
  52.7966        619
  52.8151        695
  52.8337        734
  52.8523        732
  52.8709        689
  52.8894        635
  52.9080        594
  52.9266        569
  52.9452        612
  52.9637        635
  52.9823        592
  53.0009        548
  53.0195        561
  53.0381        471
  53.0566        505
  53.0752        447
  53.0938        467
  53.1124        430
  53.1309        432
  53.1495        444
  53.1681        403
  53.1867        415
  53.2052        384
  53.2238        409
  53.2424        438
  53.2610        440
  53.2795        430
  53.2981        427
  53.3167        472
  53.3353        478
  53.3538        501
  53.3724        571
  53.3910        588
  53.4096        593
  53.4282        611
  53.4467        591
  53.4653        522
  53.4839        549
  53.5025        547
  53.5210        559
  53.5396        517
  53.5582        514
  53.5768        532
  53.5953        469
  53.6139        477
  53.6325        468
  53.6511        416
  53.6696        404
  53.6882        429
  53.7068        434
  53.7254        406
  53.7439        393
  53.7625        435
  53.7811        409
  53.7997        394
  53.8183        429
  53.8368        375
  53.8554        377
  53.8740        389
  53.8926        399
  53.9111        407
  53.9297        352
  53.9483        414
  53.9669        370
  53.9854        375
  54.0040        378
  54.0226        397
  54.0412        388
  54.0597        410
  54.0783        423
  54.0969        419
  54.1155        392
  54.1340        385
  54.1526        395
  54.1712        403
  54.1898        369
  54.2084        404
  54.2269        394
  54.2455        391
  54.2641        417
  54.2827        391
  54.3012        408
  54.3198        440
  54.3384        444
  54.3570        474
  54.3755        482
  54.3941        450
  54.4127        441
  54.4313        441
  54.4498        437
  54.4684        414
  54.4870        434
  54.5056        447
  54.5241        423
  54.5427        437
  54.5613        418
  54.5799        428
  54.5985        380
  54.6170        438
  54.6356        428
  54.6542        396
  54.6728        421
  54.6913        371
  54.7099        385
  54.7285        417
  54.7471        382
  54.7656        390
  54.7842        382
  54.8028        419
  54.8214        378
  54.8399        385
  54.8585        395
  54.8771        406
  54.8957        428
  54.9142        407
  54.9328        418
  54.9514        425
  54.9700        431
  54.9886        506
  55.0071        507
  55.0257        575
  55.0443        602
  55.0629        624
  55.0814        632
  55.1000        602
  55.1186        608
  55.1372        547
  55.1557        585
  55.1743        579
  55.1929        542
  55.2115        488
  55.2300        483
  55.2486        502
  55.2672        523
  55.2858        516
  55.3043        452
  55.3229        413
  55.3415        414
  55.3601        367
  55.3787        415
  55.3972        396
  55.4158        381
  55.4344        409
  55.4530        381
  55.4715        419
  55.4901        373
  55.5087        395
  55.5273        390
  55.5458        402
  55.5644        427
  55.5830        385
  55.6016        369
  55.6201        372
  55.6387        389
  55.6573        392
  55.6759        377
  55.6944        428
  55.7130        394
  55.7316        386
  55.7502        390
  55.7688        381
  55.7873        410
  55.8059        439
  55.8245        395
  55.8431        417
  55.8616        412
  55.8802        426
  55.8988        415
  55.9174        429
  55.9359        388
  55.9545        415
  55.9731        402
  55.9917        420
  56.0102        444
  56.0288        405
  56.0474        401
  56.0660        411
  56.0846        422
  56.1031        403
  56.1217        379
  56.1403        434
  56.1589        413
  56.1774        451
  56.1960        388
  56.2146        429
  56.2332        426
  56.2517        397
  56.2703        414
  56.2889        389
  56.3075        389
  56.3260        394
  56.3446        414
  56.3632        408
  56.3818        420
  56.4003        369
  56.4189        377
  56.4375        381
  56.4561        404
  56.4747        421
  56.4932        412
  56.5118        371
  56.5304        393
  56.5490        389
  56.5675        387
  56.5861        373
  56.6047        404
  56.6233        366
  56.6418        403
  56.6604        430
  56.6790        387
  56.6976        372
  56.7161        393
  56.7347        384
  56.7533        408
  56.7719        406
  56.7904        435
  56.8090        404
  56.8276        485
  56.8462        464
  56.8648        458
  56.8833        462
  56.9019        439
  56.9205        444
  56.9391        421
  56.9576        416
  56.9762        433
  56.9948        438
  57.0134        467
  57.0319        473
  57.0505        422
  57.0691        442
  57.0877        401
  57.1062        403
  57.1248        440
  57.1434        400
  57.1620        401
  57.1805        413
  57.1991        398
  57.2177        428
  57.2363        367
  57.2549        372
  57.2734        378
  57.2920        406
  57.3106        381
  57.3292        458
  57.3477        461
  57.3663        434
  57.3849        424
  57.4035        445
  57.4220        483
  57.4406        601
  57.4592        704
  57.4778        703
  57.4963        594
  57.5149        556
  57.5335        503
  57.5521        471
  57.5706        453
  57.5892        507
  57.6078        561
  57.6264        561
  57.6450        509
  57.6635        467
  57.6821        458
  57.7007        450
  57.7193        440
  57.7378        411
  57.7564        421
  57.7750        420
  57.7936        415
  57.8121        428
  57.8307        426
  57.8493        444
  57.8679        426
  57.8864        413
  57.9050        420
  57.9236        420
  57.9422        434
  57.9607        397
  57.9793        412
  57.9979        431
  58.0165        394
  58.0351        423
  58.0536        420
  58.0722        440
  58.0908        372
  58.1094        402
  58.1279        384
  58.1465        401
  58.1651        405
  58.1837        428
  58.2022        397
  58.2208        381
  58.2394        396
  58.2580        432
  58.2765        414
  58.2951        413
  58.3137        388
  58.3323        425
  58.3508        380
  58.3694        395
  58.3880        398
  58.4066        387
  58.4252        445
  58.4437        427
  58.4623        437
  58.4809        400
  58.4995        475
  58.5180        422
  58.5366        412
  58.5552        423
  58.5738        441
  58.5923        438
  58.6109        449
  58.6295        478
  58.6481        439
  58.6666        441
  58.6852        511
  58.7038        545
  58.7224        512
  58.7409        588
  58.7595        567
  58.7781        732
  58.7967        824
  58.8153       1005
  58.8338       1145
  58.8524       1190
  58.8710       1201
  58.8896       1242
  58.9081       1264
  58.9267       1093
  58.9453       1067
  58.9639       1011
  58.9824        947
  59.0010        907
  59.0196        877
  59.0382        921
  59.0567        828
  59.0753        846
  59.0939        742
  59.1125        682
  59.1310        545
  59.1496        593
  59.1682        457
  59.1868        523
  59.2054        468
  59.2239        449
  59.2425        449
  59.2611        418
  59.2797        436
  59.2982        375
  59.3168        370
  59.3354        391
  59.3540        388
  59.3725        418
  59.3911        396
  59.4097        415
  59.4283        400
  59.4468        376
  59.4654        418
  59.4840        445
  59.5026        408
  59.5211        399
  59.5397        398
  59.5583        400
  59.5769        395
  59.5955        368
  59.6140        396
  59.6326        364
  59.6512        374
  59.6698        394
  59.6883        414
  59.7069        361
  59.7255        399
  59.7441        356
  59.7626        432
  59.7812        392
  59.7998        366
  59.8184        376
  59.8369        422
  59.8555        393
  59.8741        361
  59.8927        382
  59.9112        398
  59.9298        386
  59.9484        420
  59.9670        392
