
   5.0000       1843
   5.0186       1871
   5.0372       1802
   5.0557       1800
   5.0743       1842
   5.0929       1716
   5.1115       1760
   5.1300       1751
   5.1486       1697
   5.1672       1685
   5.1858       1748
   5.2043       1640
   5.2229       1776
   5.2415       1690
   5.2601       1668
   5.2786       1634
   5.2972       1582
   5.3158       1567
   5.3344       1591
   5.3529       1694
   5.3715       1590
   5.3901       1599
   5.4087       1588
   5.4273       1591
   5.4458       1536
   5.4644       1552
   5.4830       1577
   5.5016       1535
   5.5201       1567
   5.5387       1512
   5.5573       1564
   5.5759       1453
   5.5944       1474
   5.6130       1505
   5.6316       1491
   5.6502       1534
   5.6687       1475
   5.6873       1469
   5.7059       1466
   5.7245       1392
   5.7430       1532
   5.7616       1456
   5.7802       1435
   5.7988       1441
   5.8174       1394
   5.8359       1409
   5.8545       1354
   5.8731       1375
   5.8917       1345
   5.9102       1317
   5.9288       1377
   5.9474       1422
   5.9660       1333
   5.9845       1334
   6.0031       1353
   6.0217       1305
   6.0403       1331
   6.0588       1285
   6.0774       1270
   6.0960       1346
   6.1146       1297
   6.1331       1277
   6.1517       1319
   6.1703       1237
   6.1889       1266
   6.2075       1284
   6.2260       1269
   6.2446       1243
   6.2632       1285
   6.2818       1241
   6.3003       1194
   6.3189       1227
   6.3375       1224
   6.3561       1332
   6.3746       1231
   6.3932       1268
   6.4118       1125
   6.4304       1169
   6.4489       1222
   6.4675       1168
   6.4861       1207
   6.5047       1173
   6.5232       1168
   6.5418       1210
   6.5604       1167
   6.5790       1181
   6.5976       1120
   6.6161       1193
   6.6347       1193
   6.6533       1158
   6.6719       1128
   6.6904       1200
   6.7090       1108
   6.7276       1047
   6.7462       1114
   6.7647       1120
   6.7833       1100
   6.8019       1107
   6.8205       1093
   6.8390       1139
   6.8576       1089
   6.8762       1134
   6.8948       1167
   6.9133       1121
   6.9319       1083
   6.9505       1118
   6.9691       1112
   6.9877       1070
   7.0062       1133
   7.0248       1106
   7.0434       1049
   7.0620       1144
   7.0805       1099
   7.0991       1091
   7.1177       1052
   7.1363       1005
   7.1548       1040
   7.1734       1037
   7.1920        982
   7.2106       1030
   7.2291       1045
   7.2477       1064
   7.2663       1051
   7.2849       1081
   7.3034       1041
   7.3220       1036
   7.3406       1025
   7.3592       1032
   7.3778       1027
   7.3963       1019
   7.4149       1020
   7.4335        969
   7.4521       1004
   7.4706       1022
   7.4892       1042
   7.5078       1032
   7.5264        958
   7.5449        993
   7.5635       1008
   7.5821        986
   7.6007       1016
   7.6192       1036
   7.6378        998
   7.6564       1065
   7.6750       1045
   7.6935       1034
   7.7121        968
   7.7307       1043
   7.7493       1025
   7.7679        934
   7.7864        971
   7.8050        981
   7.8236       1000
   7.8422       1027
   7.8607        977
   7.8793       1011
   7.8979        968
   7.9165       1023
   7.9350        959
   7.9536       1016
   7.9722       1058
   7.9908       1078
   8.0093       1069
   8.0279       1050
   8.0465        989
   8.0651       1003
   8.0836       1016
   8.1022       1015
   8.1208        968
   8.1394       1029
   8.1580       1042
   8.1765       1050
   8.1951        957
   8.2137       1049
   8.2323       1012
   8.2508       1045
   8.2694       1014
   8.2880       1024
   8.3066       1014
   8.3251        992
   8.3437       1009
   8.3623        982
   8.3809       1055
   8.3994       1017
   8.4180       1006
   8.4366       1046
   8.4552        950
   8.4737        943
   8.4923       1013
   8.5109        943
   8.5295        969
   8.5481        967
   8.5666        940
   8.5852       1038
   8.6038        960
   8.6224       1008
   8.6409       1028
   8.6595       1064
   8.6781       1075
   8.6967        976
   8.7152       1000
   8.7338        990
   8.7524        975
   8.7710       1012
   8.7895        975
   8.8081       1015
   8.8267        978
   8.8453        957
   8.8638       1020
   8.8824        968
   8.9010       1033
   8.9196       1004
   8.9382        979
   8.9567        973
   8.9753        974
   8.9939        967
   9.0125       1039
   9.0310       1016
   9.0496       1059
   9.0682        975
   9.0868        988
   9.1053        952
   9.1239        983
   9.1425        924
   9.1611        960
   9.1796       1009
   9.1982       1036
   9.2168        932
   9.2354        940
   9.2539        956
   9.2725        944
   9.2911        965
   9.3097        996
   9.3283        972
   9.3468       1015
   9.3654        922
   9.3840        970
   9.4026        978
   9.4211        965
   9.4397        988
   9.4583        995
   9.4769        986
   9.4954        995
   9.5140        952
   9.5326        935
   9.5512        962
   9.5697        943
   9.5883       1009
   9.6069        972
   9.6255        923
   9.6441        957
   9.6626        942
   9.6812        956
   9.6998       1029
   9.7184        989
   9.7369        964
   9.7555        980
   9.7741        932
   9.7927        957
   9.8112        946
   9.8298        976
   9.8484        956
   9.8670        919
   9.8855        982
   9.9041        968
   9.9227       1001
   9.9413       1012
   9.9598        923
   9.9784        959
   9.9970        893
  10.0156       1000
  10.0342        946
  10.0527        951
  10.0713        926
  10.0899        956
  10.1085        945
  10.1270        939
  10.1456        927
  10.1642        936
  10.1828        950
  10.2013        887
  10.2199        900
  10.2385        942
  10.2571        912
  10.2756        938
  10.2942        951
  10.3128        906
  10.3314        940
  10.3499        864
  10.3685        881
  10.3871        945
  10.4057        923
  10.4243        907
  10.4428        867
  10.4614        875
  10.4800        910
  10.4986        924
  10.5171        932
  10.5357        850
  10.5543        897
  10.5729        934
  10.5914        919
  10.6100        903
  10.6286        916
  10.6472        900
  10.6657        888
  10.6843        931
  10.7029        894
  10.7215        872
  10.7400        878
  10.7586        875
  10.7772        893
  10.7958        839
  10.8144        898
  10.8329        862
  10.8515        879
  10.8701        860
  10.8887        915
  10.9072        813
  10.9258        890
  10.9444        862
  10.9630        891
  10.9815        814
  11.0001        884
  11.0187        874
  11.0373        875
  11.0558        877
  11.0744        842
  11.0930        843
  11.1116        861
  11.1301        882
  11.1487        863
  11.1673        883
  11.1859        809
  11.2045        842
  11.2230        848
  11.2416        831
  11.2602        893
  11.2788        874
  11.2973        854
  11.3159        839
  11.3345        873
  11.3531        869
  11.3716        879
  11.3902        897
  11.4088        901
  11.4274        845
  11.4459        881
  11.4645        845
  11.4831        873
  11.5017        892
  11.5202        862
  11.5388        864
  11.5574        865
  11.5760        835
  11.5946        926
  11.6131        824
  11.6317        857
  11.6503        861
  11.6689        834
  11.6874        936
  11.7060        813
  11.7246        920
  11.7432        971
  11.7617        963
  11.7803       1079
  11.7989       1199
  11.8175       1428
  11.8360       1584
  11.8546       1782
  11.8732       1863
  11.8918       1935
  11.9103       1803
  11.9289       1434
  11.9475       1207
  11.9661        988
  11.9847        858
  12.0032        850
  12.0218        834
  12.0404        811
  12.0590        795
  12.0775        840
  12.0961        723
  12.1147        842
  12.1333        787
  12.1518        812
  12.1704        816
  12.1890        801
  12.2076        749
  12.2261        812
  12.2447        725
  12.2633        809
  12.2819        833
  12.3004        818
  12.3190        772
  12.3376        784
  12.3562        762
  12.3748        773
  12.3933        810
  12.4119        773
  12.4305        800
  12.4491        763
  12.4676        706
  12.4862        789
  12.5048        726
  12.5234        761
  12.5419        717
  12.5605        793
  12.5791        770
  12.5977        759
  12.6162        779
  12.6348        784
  12.6534        776
  12.6720        790
  12.6905        807
  12.7091        787
  12.7277        738
  12.7463        750
  12.7649        714
  12.7834        729
  12.8020        743
  12.8206        762
  12.8392        718
  12.8577        722
  12.8763        756
  12.8949        726
  12.9135        713
  12.9320        739
  12.9506        755
  12.9692        772
  12.9878        746
  13.0063        794
  13.0249        728
  13.0435        813
  13.0621        737
  13.0806        767
  13.0992        736
  13.1178        738
  13.1364        707
  13.1550        709
  13.1735        706
  13.1921        681
  13.2107        679
  13.2293        661
  13.2478        718
  13.2664        672
  13.2850        705
  13.3036        718
  13.3221        701
  13.3407        744
  13.3593        726
  13.3779        713
  13.3964        722
  13.4150        730
  13.4336        762
  13.4522        692
  13.4707        714
  13.4893        707
  13.5079        678
  13.5265        702
  13.5451        716
  13.5636        691
  13.5822        653
  13.6008        663
  13.6194        686
  13.6379        693
  13.6565        715
  13.6751        689
  13.6937        697
  13.7122        699
  13.7308        656
  13.7494        674
  13.7680        644
  13.7865        682
  13.8051        688
  13.8237        637
  13.8423        697
  13.8608        663
  13.8794        628
  13.8980        720
  13.9166        691
  13.9352        710
  13.9537        667
  13.9723        716
  13.9909        692
  14.0095        660
  14.0280        692
  14.0466        671
  14.0652        659
  14.0838        662
  14.1023        704
  14.1209        637
  14.1395        687
  14.1581        688
  14.1766        662
  14.1952        682
  14.2138        675
  14.2324        645
  14.2509        653
  14.2695        706
  14.2881        627
  14.3067        690
  14.3253        661
  14.3438        641
  14.3624        663
  14.3810        642
  14.3996        652
  14.4181        584
  14.4367        667
  14.4553        641
  14.4739        631
  14.4924        634
  14.5110        659
  14.5296        641
  14.5482        653
  14.5667        640
  14.5853        651
  14.6039        673
  14.6225        649
  14.6410        653
  14.6596        652
  14.6782        625
  14.6968        639
  14.7154        629
  14.7339        666
  14.7525        685
  14.7711        639
  14.7897        605
  14.8082        671
  14.8268        595
  14.8454        601
  14.8640        637
  14.8825        659
  14.9011        659
  14.9197        600
  14.9383        576
  14.9568        627
  14.9754        672
  14.9940        603
  15.0126        640
  15.0311        662
  15.0497        635
  15.0683        634
  15.0869        612
  15.1055        664
  15.1240        687
  15.1426        632
  15.1612        637
  15.1798        646
  15.1983        591
  15.2169        633
  15.2355        608
  15.2541        608
  15.2726        623
  15.2912        638
  15.3098        624
  15.3284        578
  15.3469        606
  15.3655        577
  15.3841        673
  15.4027        650
  15.4212        628
  15.4398        623
  15.4584        600
  15.4770        574
  15.4956        648
  15.5141        621
  15.5327        626
  15.5513        608
  15.5699        621
  15.5884        645
  15.6070        629
  15.6256        656
  15.6442        606
  15.6627        648
  15.6813        627
  15.6999        601
  15.7185        610
  15.7370        608
  15.7556        579
  15.7742        629
  15.7928        656
  15.8113        626
  15.8299        620
  15.8485        621
  15.8671        552
  15.8857        621
  15.9042        554
  15.9228        577
  15.9414        624
  15.9600        602
  15.9785        600
  15.9971        588
  16.0157        588
  16.0343        653
  16.0528        568
  16.0714        639
  16.0900        578
  16.1086        622
  16.1271        584
  16.1457        634
  16.1643        626
  16.1829        621
  16.2014        647
  16.2200        631
  16.2386        600
  16.2572        651
  16.2758        592
  16.2943        641
  16.3129        585
  16.3315        632
  16.3501        599
  16.3686        599
  16.3872        653
  16.4058        624
  16.4244        621
  16.4429        613
  16.4615        626
  16.4801        635
  16.4987        608
  16.5172        572
  16.5358        602
  16.5544        615
  16.5730        608
  16.5915        636
  16.6101        621
  16.6287        587
  16.6473        666
  16.6659        624
  16.6844        638
  16.7030        580
  16.7216        625
  16.7402        600
  16.7587        601
  16.7773        614
  16.7959        629
  16.8145        584
  16.8330        598
  16.8516        648
  16.8702        619
  16.8888        627
  16.9073        574
  16.9259        631
  16.9445        602
  16.9631        556
  16.9816        645
  17.0002        622
  17.0188        618
  17.0374        606
  17.0560        648
  17.0745        646
  17.0931        628
  17.1117        642
  17.1303        597
  17.1488        598
  17.1674        611
  17.1860        637
  17.2046        596
  17.2231        610
  17.2417        551
  17.2603        641
  17.2789        602
  17.2974        568
  17.3160        594
  17.3346        592
  17.3532        589
  17.3717        586
  17.3903        652
  17.4089        612
  17.4275        569
  17.4461        630
  17.4646        585
  17.4832        605
  17.5018        569
  17.5204        614
  17.5389        627
  17.5575        592
  17.5761        588
  17.5947        613
  17.6132        628
  17.6318        598
  17.6504        578
  17.6690        640
  17.6875        571
  17.7061        596
  17.7247        609
  17.7433        623
  17.7618        607
  17.7804        603
  17.7990        585
  17.8176        598
  17.8362        572
  17.8547        580
  17.8733        591
  17.8919        598
  17.9105        610
  17.9290        584
  17.9476        596
  17.9662        583
  17.9848        602
  18.0033        580
  18.0219        608
  18.0405        610
  18.0591        605
  18.0776        585
  18.0962        581
  18.1148        592
  18.1334        616
  18.1519        595
  18.1705        562
  18.1891        625
  18.2077        526
  18.2263        574
  18.2448        583
  18.2634        620
  18.2820        609
  18.3006        581
  18.3191        615
  18.3377        611
  18.3563        580
  18.3749        616
  18.3934        653
  18.4120        630
  18.4306        616
  18.4492        661
  18.4677        644
  18.4863        635
  18.5049        654
  18.5235        645
  18.5420        616
  18.5606        598
  18.5792        602
  18.5978        646
  18.6164        576
  18.6349        634
  18.6535        643
  18.6721        572
  18.6907        645
  18.7092        590
  18.7278        657
  18.7464        676
  18.7650        573
  18.7835        634
  18.8021        606
  18.8207        620
  18.8393        572
  18.8578        611
  18.8764        616
  18.8950        636
  18.9136        593
  18.9322        540
  18.9507        625
  18.9693        552
  18.9879        581
  19.0065        621
  19.0250        572
  19.0436        625
  19.0622        619
  19.0808        612
  19.0993        616
  19.1179        548
  19.1365        581
  19.1551        590
  19.1736        565
  19.1922        593
  19.2108        621
  19.2294        644
  19.2479        635
  19.2665        560
  19.2851        630
  19.3037        610
  19.3223        595
  19.3408        590
  19.3594        587
  19.3780        577
  19.3966        581
  19.4151        594
  19.4337        557
  19.4523        575
  19.4709        589
  19.4894        584
  19.5080        606
  19.5266        565
  19.5452        608
  19.5637        609
  19.5823        586
  19.6009        607
  19.6195        628
  19.6380        618
  19.6566        576
  19.6752        607
  19.6938        590
  19.7124        594
  19.7309        555
  19.7495        595
  19.7681        623
  19.7867        594
  19.8052        624
  19.8238        567
  19.8424        631
  19.8610        642
  19.8795        577
  19.8981        586
  19.9167        634
  19.9353        582
  19.9538        613
  19.9724        609
  19.9910        578
  20.0096        558
  20.0281        635
  20.0467        616
  20.0653        600
  20.0839        605
  20.1025        622
  20.1210        610
  20.1396        613
  20.1582        579
  20.1768        621
  20.1953        573
  20.2139        631
  20.2325        593
  20.2511        547
  20.2696        590
  20.2882        572
  20.3068        565
  20.3254        557
  20.3439        564
  20.3625        572
  20.3811        609
  20.3997        583
  20.4182        590
  20.4368        584
  20.4554        615
  20.4740        561
  20.4926        598
  20.5111        587
  20.5297        610
  20.5483        597
  20.5669        646
  20.5854        568
  20.6040        615
  20.6226        608
  20.6412        601
  20.6597        604
  20.6783        618
  20.6969        629
  20.7155        590
  20.7340        583
  20.7526        580
  20.7712        635
  20.7898        583
  20.8083        581
  20.8269        602
  20.8455        594
  20.8641        582
  20.8827        575
  20.9012        589
  20.9198        584
  20.9384        621
  20.9570        612
  20.9755        574
  20.9941        558
  21.0127        596
  21.0313        592
  21.0498        606
  21.0684        596
  21.0870        637
  21.1056        663
  21.1241        595
  21.1427        640
  21.1613        617
  21.1799        623
  21.1984        548
  21.2170        614
  21.2356        621
  21.2542        592
  21.2728        576
  21.2913        610
  21.3099        638
  21.3285        582
  21.3471        608
  21.3656        587
  21.3842        586
  21.4028        570
  21.4214        600
  21.4399        595
  21.4585        568
  21.4771        560
  21.4957        591
  21.5142        614
  21.5328        592
  21.5514        572
  21.5700        643
  21.5885        628
  21.6071        621
  21.6257        563
  21.6443        574
  21.6629        548
  21.6814        598
  21.7000        573
  21.7186        541
  21.7372        611
  21.7557        619
  21.7743        607
  21.7929        603
  21.8115        603
  21.8300        598
  21.8486        592
  21.8672        656
  21.8858        642
  21.9043        661
  21.9229        685
  21.9415        699
  21.9601        715
  21.9786        646
  21.9972        692
  22.0158        593
  22.0344        650
  22.0530        601
  22.0715        613
  22.0901        572
  22.1087        569
  22.1273        594
  22.1458        581
  22.1644        567
  22.1830        551
  22.2016        571
  22.2201        571
  22.2387        600
  22.2573        672
  22.2759        561
  22.2944        613
  22.3130        609
  22.3316        616
  22.3502        569
  22.3687        631
  22.3873        630
  22.4059        625
  22.4245        644
  22.4431        657
  22.4616        709
  22.4802        712
  22.4988        687
  22.5174        715
  22.5359        682
  22.5545        679
  22.5731        677
  22.5917        664
  22.6102        691
  22.6288        733
  22.6474        819
  22.6660        979
  22.6845       1248
  22.7031       1825
  22.7217       2557
  22.7403       3449
  22.7588       4178
  22.7774       3760
  22.7960       2772
  22.8146       2469
  22.8332       2015
  22.8517       1310
  22.8703        937
  22.8889        903
  22.9075        823
  22.9260        769
  22.9446        772
  22.9632        756
  22.9818        771
  23.0003        714
  23.0189        644
  23.0375        672
  23.0561        581
  23.0746        606
  23.0932        598
  23.1118        581
  23.1304        662
  23.1489        601
  23.1675        572
  23.1861        604
  23.2047        603
  23.2233        594
  23.2418        585
  23.2604        589
  23.2790        606
  23.2976        610
  23.3161        613
  23.3347        611
  23.3533        579
  23.3719        577
  23.3904        589
  23.4090        581
  23.4276        628
  23.4462        636
  23.4647        583
  23.4833        642
  23.5019        653
  23.5205        655
  23.5390        612
  23.5576        674
  23.5762        644
  23.5948        646
  23.6134        607
  23.6319        669
  23.6505        599
  23.6691        603
  23.6877        648
  23.7062        611
  23.7248        625
  23.7434        672
  23.7620        646
  23.7805        707
  23.7991        711
  23.8177        804
  23.8363       1040
  23.8548       1251
  23.8734       1649
  23.8920       2113
  23.9106       2390
  23.9291       2569
  23.9477       2168
  23.9663       1718
  23.9849       1550
  24.0035       1213
  24.0220        916
  24.0406        738
  24.0592        661
  24.0778        671
  24.0963        599
  24.1149        649
  24.1335        605
  24.1521        652
  24.1706        595
  24.1892        631
  24.2078        606
  24.2264        575
  24.2449        583
  24.2635        593
  24.2821        555
  24.3007        592
  24.3192        604
  24.3378        578
  24.3564        579
  24.3750        575
  24.3936        592
  24.4121        606
  24.4307        574
  24.4493        591
  24.4679        579
  24.4864        581
  24.5050        530
  24.5236        568
  24.5422        552
  24.5607        547
  24.5793        554
  24.5979        544
  24.6165        556
  24.6350        542
  24.6536        589
  24.6722        559
  24.6908        549
  24.7093        594
  24.7279        590
  24.7465        569
  24.7651        534
  24.7837        560
  24.8022        533
  24.8208        540
  24.8394        553
  24.8580        532
  24.8765        539
  24.8951        565
  24.9137        564
  24.9323        543
  24.9508        573
  24.9694        555
  24.9880        523
  25.0066        564
  25.0251        549
  25.0437        571
  25.0623        548
  25.0809        587
  25.0994        624
  25.1180        547
  25.1366        562
  25.1552        568
  25.1738        551
  25.1923        593
  25.2109        548
  25.2295        552
  25.2481        559
  25.2666        546
  25.2852        543
  25.3038        607
  25.3224        644
  25.3409        616
  25.3595        563
  25.3781        587
  25.3967        524
  25.4152        558
  25.4338        556
  25.4524        528
  25.4710        570
  25.4895        641
  25.5081        549
  25.5267        560
  25.5453        646
  25.5639        576
  25.5824        652
  25.6010        581
  25.6196        603
  25.6382        642
  25.6567        622
  25.6753        575
  25.6939        644
  25.7125        674
  25.7310        720
  25.7496        787
  25.7682        849
  25.7868        717
  25.8053        651
  25.8239        639
  25.8425        580
  25.8611        571
  25.8796        564
  25.8982        553
  25.9168        558
  25.9354        525
  25.9540        543
  25.9725        544
  25.9911        571
  26.0097        559
  26.0283        559
  26.0468        518
  26.0654        559
  26.0840        536
  26.1026        544
  26.1211        553
  26.1397        545
  26.1583        486
  26.1769        533
  26.1954        535
  26.2140        541
  26.2326        562
  26.2512        566
  26.2697        552
  26.2883        525
  26.3069        507
  26.3255        481
  26.3441        515
  26.3626        490
  26.3812        541
  26.3998        521
  26.4184        572
  26.4369        528
  26.4555        522
  26.4741        512
  26.4927        560
  26.5112        541
  26.5298        532
  26.5484        543
  26.5670        502
  26.5855        504
  26.6041        547
  26.6227        551
  26.6413        516
  26.6598        543
  26.6784        511
  26.6970        532
  26.7156        505
  26.7342        496
  26.7527        520
  26.7713        490
  26.7899        508
  26.8085        521
  26.8270        515
  26.8456        546
  26.8642        500
  26.8828        567
  26.9013        512
  26.9199        494
  26.9385        548
  26.9571        563
  26.9756        496
  26.9942        505
  27.0128        549
  27.0314        520
  27.0499        500
  27.0685        493
  27.0871        533
  27.1057        500
  27.1243        548
  27.1428        516
  27.1614        493
  27.1800        504
  27.1986        497
  27.2171        523
  27.2357        496
  27.2543        539
  27.2729        504
  27.2914        558
  27.3100        545
  27.3286        537
  27.3472        513
  27.3657        524
  27.3843        521
  27.4029        478
  27.4215        490
  27.4400        513
  27.4586        522
  27.4772        480
  27.4958        504
  27.5144        531
  27.5329        508
  27.5515        492
  27.5701        496
  27.5887        521
  27.6072        530
  27.6258        510
  27.6444        527
  27.6630        512
  27.6815        543
  27.7001        534
  27.7187        535
  27.7373        537
  27.7558        495
  27.7744        536
  27.7930        545
  27.8116        551
  27.8301        518
  27.8487        539
  27.8673        553
  27.8859        621
  27.9045        647
  27.9230        674
  27.9416        730
  27.9602        770
  27.9788        773
  27.9973        697
  28.0159        668
  28.0345        715
  28.0531        646
  28.0716        600
  28.0902        600
  28.1088        500
  28.1274        538
  28.1459        493
  28.1645        510
  28.1831        525
  28.2017        535
  28.2203        499
  28.2388        480
  28.2574        513
  28.2760        499
  28.2946        530
  28.3131        560
  28.3317        581
  28.3503        541
  28.3689        545
  28.3874        583
  28.4060        549
  28.4246        559
  28.4432        503
  28.4617        477
  28.4803        462
  28.4989        510
  28.5175        490
  28.5360        497
  28.5546        480
  28.5732        514
  28.5918        485
  28.6104        470
  28.6289        504
  28.6475        487
  28.6661        481
  28.6847        484
  28.7032        500
  28.7218        488
  28.7404        493
  28.7590        484
  28.7775        479
  28.7961        484
  28.8147        528
  28.8333        491
  28.8518        461
  28.8704        524
  28.8890        518
  28.9076        475
  28.9261        502
  28.9447        457
  28.9633        530
  28.9819        521
  29.0005        507
  29.0190        508
  29.0376        522
  29.0562        519
  29.0748        542
  29.0933        563
  29.1119        585
  29.1305        546
  29.1491        568
  29.1676        534
  29.1862        523
  29.2048        526
  29.2234        497
  29.2419        497
  29.2605        514
  29.2791        451
  29.2977        491
  29.3162        434
  29.3348        520
  29.3534        493
  29.3720        460
  29.3906        510
  29.4091        483
  29.4277        480
  29.4463        525
  29.4649        521
  29.4834        486
  29.5020        499
  29.5206        486
  29.5392        476
  29.5577        494
  29.5763        490
  29.5949        501
  29.6135        540
  29.6320        544
  29.6506        494
  29.6692        516
  29.6878        577
  29.7063        589
  29.7249        585
  29.7435        677
  29.7621        704
  29.7807        704
  29.7992        630
  29.8178        605
  29.8364        625
  29.8550        569
  29.8735        569
  29.8921        479
  29.9107        495
  29.9293        492
  29.9478        481
  29.9664        527
  29.9850        491
  30.0036        490
  30.0221        494
  30.0407        510
  30.0593        520
  30.0779        479
  30.0964        501
  30.1150        443
  30.1336        437
  30.1522        437
  30.1708        420
  30.1893        455
  30.2079        481
  30.2265        440
  30.2451        457
  30.2636        474
  30.2822        493
  30.3008        493
  30.3194        471
  30.3379        434
  30.3565        458
  30.3751        488
  30.3937        486
  30.4122        482
  30.4308        508
  30.4494        479
  30.4680        514
  30.4865        506
  30.5051        482
  30.5237        492
  30.5423        509
  30.5609        468
  30.5794        509
  30.5980        499
  30.6166        486
  30.6352        526
  30.6537        509
  30.6723        512
  30.6909        510
  30.7095        478
  30.7280        484
  30.7466        448
  30.7652        474
  30.7838        428
  30.8023        459
  30.8209        436
  30.8395        444
  30.8581        463
  30.8766        414
  30.8952        448
  30.9138        441
  30.9324        443
  30.9510        434
  30.9695        443
  30.9881        476
  31.0067        436
  31.0253        461
  31.0438        479
  31.0624        458
  31.0810        469
  31.0996        457
  31.1181        440
  31.1367        439
  31.1553        438
  31.1739        469
  31.1924        479
  31.2110        446
  31.2296        478
  31.2482        453
  31.2667        471
  31.2853        480
  31.3039        464
  31.3225        501
  31.3411        493
  31.3596        565
  31.3782        568
  31.3968        557
  31.4154        505
  31.4339        478
  31.4525        468
  31.4711        487
  31.4897        475
  31.5082        465
  31.5268        432
  31.5454        431
  31.5640        452
  31.5825        477
  31.6011        464
  31.6197        465
  31.6383        438
  31.6568        457
  31.6754        437
  31.6940        446
  31.7126        423
  31.7312        446
  31.7497        457
  31.7683        483
  31.7869        514
  31.8055        492
  31.8240        444
  31.8426        466
  31.8612        457
  31.8798        458
  31.8983        518
  31.9169        548
  31.9355        514
  31.9541        507
  31.9726        529
  31.9912        520
  32.0098        517
  32.0284        527
  32.0469        537
  32.0655        491
  32.0841        516
  32.1027        565
  32.1213        568
  32.1398        620
  32.1584        591
  32.1770        632
  32.1956        571
  32.2141        604
  32.2327        600
  32.2513        643
  32.2699        752
  32.2884        762
  32.3070        873
  32.3256       1180
  32.3442       1756
  32.3627       2816
  32.3813       4095
  32.3999       5184
  32.4185       4447
  32.4370       3035
  32.4556       2714
  32.4742       3041
  32.4928       2779
  32.5114       2081
  32.5299       1355
  32.5485       1001
  32.5671        815
  32.5857        780
  32.6042        727
  32.6228        677
  32.6414        605
  32.6600        627
  32.6785        591
  32.6971        565
  32.7157        548
  32.7343        532
  32.7528        514
  32.7714        544
  32.7900        534
  32.8086        513
  32.8271        519
  32.8457        560
  32.8643        527
  32.8829        566
  32.9015        571
  32.9200        582
  32.9386        628
  32.9572        654
  32.9758        646
  32.9943        671
  33.0129        687
  33.0315        747
  33.0501        786
  33.0686        821
  33.0872        901
  33.1058       1029
  33.1244       1080
  33.1429       1291
  33.1615       1698
  33.1801       2520
  33.1987       4154
  33.2172       6409
  33.2358       9224
  33.2544      10549
  33.2730       8092
  33.2916       5503
  33.3101       5156
  33.3287       5812
  33.3473       5219
  33.3659       3338
  33.3844       1917
  33.4030       1266
  33.4216       1069
  33.4402        914
  33.4587        829
  33.4773        773
  33.4959        755
  33.5145        651
  33.5330        633
  33.5516        610
  33.5702        553
  33.5888        522
  33.6073        521
  33.6259        509
  33.6445        526
  33.6631        499
  33.6817        505
  33.7002        477
  33.7188        494
  33.7374        507
  33.7560        474
  33.7745        462
  33.7931        488
  33.8117        465
  33.8303        466
  33.8488        494
  33.8674        406
  33.8860        450
  33.9046        479
  33.9231        487
  33.9417        440
  33.9603        449
  33.9789        472
  33.9974        463
  34.0160        419
  34.0346        433
  34.0532        442
  34.0718        439
  34.0903        459
  34.1089        415
  34.1275        443
  34.1461        442
  34.1646        410
  34.1832        436
  34.2018        468
  34.2204        432
  34.2389        405
  34.2575        445
  34.2761        383
  34.2947        413
  34.3132        436
  34.3318        451
  34.3504        417
  34.3690        450
  34.3875        419
  34.4061        444
  34.4247        469
  34.4433        425
  34.4619        434
  34.4804        402
  34.4990        429
  34.5176        429
  34.5362        435
  34.5547        438
  34.5733        471
  34.5919        474
  34.6105        514
  34.6290        516
  34.6476        507
  34.6662        483
  34.6848        485
  34.7033        449
  34.7219        484
  34.7405        447
  34.7591        402
  34.7776        409
  34.7962        425
  34.8148        416
  34.8334        439
  34.8520        421
  34.8705        391
  34.8891        400
  34.9077        407
  34.9263        391
  34.9448        408
  34.9634        409
  34.9820        404
  35.0006        442
  35.0191        440
  35.0377        384
  35.0563        441
  35.0749        408
  35.0934        395
  35.1120        413
  35.1306        407
  35.1492        407
  35.1677        433
  35.1863        424
  35.2049        401
  35.2235        384
  35.2421        400
  35.2606        416
  35.2792        390
  35.2978        404
  35.3164        474
  35.3349        464
  35.3535        457
  35.3721        468
  35.3907        456
  35.4092        471
  35.4278        522
  35.4464        527
  35.4650        535
  35.4835        483
  35.5021        492
  35.5207        548
  35.5393        543
  35.5578        660
  35.5764        606
  35.5950        555
  35.6136        525
  35.6322        544
  35.6507        508
  35.6693        462
  35.6879        482
  35.7065        473
  35.7250        468
  35.7436        409
  35.7622        402
  35.7808        405
  35.7993        415
  35.8179        385
  35.8365        411
  35.8551        420
  35.8736        423
  35.8922        393
  35.9108        413
  35.9294        396
  35.9479        388
  35.9665        380
  35.9851        428
  36.0037        389
  36.0223        403
  36.0408        414
  36.0594        420
  36.0780        440
  36.0966        441
  36.1151        453
  36.1337        437
  36.1523        527
  36.1709        596
  36.1894        616
  36.2080        737
  36.2266        710
  36.2452        651
  36.2637        595
  36.2823        579
  36.3009        586
  36.3195        564
  36.3380        540
  36.3566        510
  36.3752        419
  36.3938        397
  36.4124        440
  36.4309        399
  36.4495        403
  36.4681        403
  36.4867        377
  36.5052        372
  36.5238        408
  36.5424        398
  36.5610        392
  36.5795        421
  36.5981        374
  36.6167        401
  36.6353        387
  36.6538        376
  36.6724        367
  36.6910        401
  36.7096        369
  36.7281        367
  36.7467        378
  36.7653        367
  36.7839        392
  36.8025        367
  36.8210        387
  36.8396        374
  36.8582        388
  36.8768        376
  36.8953        403
  36.9139        350
  36.9325        361
  36.9511        342
  36.9696        366
  36.9882        346
  37.0068        390
  37.0254        335
  37.0439        355
  37.0625        375
  37.0811        359
  37.0997        392
  37.1182        334
  37.1368        374
  37.1554        415
  37.1740        369
  37.1926        401
  37.2111        340
  37.2297        364
  37.2483        369
  37.2669        349
  37.2854        369
  37.3040        376
  37.3226        376
  37.3412        377
  37.3597        396
  37.3783        380
  37.3969        377
  37.4155        354
  37.4340        361
  37.4526        365
  37.4712        368
  37.4898        367
  37.5084        352
  37.5269        361
  37.5455        390
  37.5641        366
  37.5827        374
  37.6012        360
  37.6198        362
  37.6384        362
  37.6570        333
  37.6755        339
  37.6941        378
  37.7127        393
  37.7313        395
  37.7498        373
  37.7684        375
  37.7870        370
  37.8056        361
  37.8241        365
  37.8427        363
  37.8613        392
  37.8799        334
  37.8985        420
  37.9170        361
  37.9356        373
  37.9542        369
  37.9728        369
  37.9913        367
  38.0099        405
  38.0285        388
  38.0471        369
  38.0656        367
  38.0842        363
  38.1028        394
  38.1214        369
  38.1399        391
  38.1585        382
  38.1771        364
  38.1957        401
  38.2142        399
  38.2328        379
  38.2514        386
  38.2700        384
  38.2886        389
  38.3071        410
  38.3257        397
  38.3443        427
  38.3629        409
  38.3814        438
  38.4000        410
  38.4186        420
  38.4372        359
  38.4557        380
  38.4743        395
  38.4929        408
  38.5115        383
  38.5300        357
  38.5486        393
  38.5672        426
  38.5858        424
  38.6043        401
  38.6229        389
  38.6415        413
  38.6601        423
  38.6787        448
  38.6972        495
  38.7158        524
  38.7344        538
  38.7530        546
  38.7715        550
  38.7901        540
  38.8087        499
  38.8273        489
  38.8458        465
  38.8644        499
  38.8830        474
  38.9016        442
  38.9201        408
  38.9387        409
  38.9573        401
  38.9759        429
  38.9944        405
  39.0130        428
  39.0316        387
  39.0502        414
  39.0688        377
  39.0873        396
  39.1059        377
  39.1245        389
  39.1431        336
  39.1616        315
  39.1802        352
  39.1988        358
  39.2174        337
  39.2359        374
  39.2545        396
  39.2731        322
  39.2917        359
  39.3102        380
  39.3288        383
  39.3474        346
  39.3660        356
  39.3845        382
  39.4031        377
  39.4217        372
  39.4403        353
  39.4589        387
  39.4774        349
  39.4960        364
  39.5146        405
  39.5332        407
  39.5517        359
  39.5703        379
  39.5889        384
  39.6075        383
  39.6260        372
  39.6446        377
  39.6632        371
  39.6818        377
  39.7003        381
  39.7189        379
  39.7375        346
  39.7561        400
  39.7746        391
  39.7932        367
  39.8118        384
  39.8304        389
  39.8490        380
  39.8675        375
  39.8861        377
  39.9047        387
  39.9233        358
  39.9418        376
  39.9604        372
  39.9790        349
  39.9976        353
  40.0161        344
  40.0347        359
  40.0533        380
  40.0719        362
  40.0904        394
  40.1090        348
  40.1276        367
  40.1462        353
  40.1647        367
  40.1833        403
  40.2019        400
  40.2205        359
  40.2391        379
  40.2576        370
  40.2762        370
  40.2948        401
  40.3134        416
  40.3319        433
  40.3505        399
  40.3691        419
  40.3877        421
  40.4062        398
  40.4248        451
  40.4434        466
  40.4620        497
  40.4805        471
  40.4991        510
  40.5177        540
  40.5363        471
  40.5548        600
  40.5734        703
  40.5920        917
  40.6106       1296
  40.6292       1997
  40.6477       3054
  40.6663       3808
  40.6849       3457
  40.7035       2213
  40.7220       1615
  40.7406       1657
  40.7592       1975
  40.7778       2190
  40.7963       1718
  40.8149       1083
  40.8335        772
  40.8521        624
  40.8706        555
  40.8892        468
  40.9078        490
  40.9264        417
  40.9449        439
  40.9635        435
  40.9821        449
  41.0007        424
  41.0193        389
  41.0378        424
  41.0564        379
  41.0750        378
  41.0936        364
  41.1121        367
  41.1307        362
  41.1493        363
  41.1679        327
  41.1864        356
  41.2050        374
  41.2236        322
  41.2422        387
  41.2607        363
  41.2793        366
  41.2979        397
  41.3165        343
  41.3350        388
  41.3536        351
  41.3722        351
  41.3908        347
  41.4094        364
  41.4279        336
  41.4465        347
  41.4651        348
  41.4837        351
  41.5022        383
  41.5208        326
  41.5394        381
  41.5580        359
  41.5765        340
  41.5951        367
  41.6137        358
  41.6323        344
  41.6508        354
  41.6694        347
  41.6880        330
  41.7066        341
  41.7251        347
  41.7437        354
  41.7623        397
  41.7809        389
  41.7995        358
  41.8180        356
  41.8366        333
  41.8552        365
  41.8738        338
  41.8923        385
  41.9109        349
  41.9295        349
  41.9481        362
  41.9666        373
  41.9852        360
  42.0038        361
  42.0224        363
  42.0409        337
  42.0595        348
  42.0781        372
  42.0967        377
  42.1152        341
  42.1338        379
  42.1524        336
  42.1710        364
  42.1896        377
  42.2081        349
  42.2267        359
  42.2453        436
  42.2639        374
  42.2824        388
  42.3010        379
  42.3196        364
  42.3382        380
  42.3567        378
  42.3753        403
  42.3939        377
  42.4125        369
  42.4310        398
  42.4496        351
  42.4682        347
  42.4868        376
  42.5053        329
  42.5239        338
  42.5425        378
  42.5611        335
  42.5797        350
  42.5982        383
  42.6168        380
  42.6354        391
  42.6540        358
  42.6725        365
  42.6911        331
  42.7097        347
  42.7283        348
  42.7468        371
  42.7654        371
  42.7840        358
  42.8026        335
  42.8211        359
  42.8397        358
  42.8583        351
  42.8769        359
  42.8954        378
  42.9140        372
  42.9326        303
  42.9512        359
  42.9698        371
  42.9883        372
  43.0069        353
  43.0255        358
  43.0441        355
  43.0626        391
  43.0812        396
  43.0998        379
  43.1184        428
  43.1369        440
  43.1555        552
  43.1741        631
  43.1927        829
  43.2112        748
  43.2298        593
  43.2484        525
  43.2670        513
  43.2855        553
  43.3041        570
  43.3227        542
  43.3413        490
  43.3599        407
  43.3784        405
  43.3970        384
  43.4156        361
  43.4342        387
  43.4527        359
  43.4713        353
  43.4899        360
  43.5085        343
  43.5270        374
  43.5456        375
  43.5642        358
  43.5828        377
  43.6013        369
  43.6199        313
  43.6385        333
  43.6571        337
  43.6756        350
  43.6942        329
  43.7128        358
  43.7314        354
  43.7500        348
  43.7685        354
  43.7871        355
  43.8057        352
  43.8243        330
  43.8428        366
  43.8614        385
  43.8800        323
  43.8986        333
  43.9171        398
  43.9357        371
  43.9543        358
  43.9729        331
  43.9914        336
  44.0100        370
  44.0286        340
  44.0472        332
  44.0657        381
  44.0843        357
  44.1029        344
  44.1215        398
  44.1401        377
  44.1586        327
  44.1772        351
  44.1958        349
  44.2144        364
  44.2329        329
  44.2515        372
  44.2701        365
  44.2887        336
  44.3072        349
  44.3258        360
  44.3444        331
  44.3630        362
  44.3815        366
  44.4001        358
  44.4187        390
  44.4373        350
  44.4558        329
  44.4744        383
  44.4930        372
  44.5116        343
  44.5302        340
  44.5487        373
  44.5673        364
  44.5859        345
  44.6045        359
  44.6230        343
  44.6416        349
  44.6602        343
  44.6788        382
  44.6973        423
  44.7159        380
  44.7345        379
  44.7531        404
  44.7716        360
  44.7902        341
  44.8088        364
  44.8274        404
  44.8459        370
  44.8645        364
  44.8831        329
  44.9017        343
  44.9203        350
  44.9388        375
  44.9574        345
  44.9760        343
  44.9946        332
  45.0131        369
  45.0317        349
  45.0503        358
  45.0689        370
  45.0874        377
  45.1060        367
  45.1246        363
  45.1432        348
  45.1617        396
  45.1803        381
  45.1989        358
  45.2175        363
  45.2360        334
  45.2546        337
  45.2732        335
  45.2918        348
  45.3104        374
  45.3289        330
  45.3475        323
  45.3661        341
  45.3847        326
  45.4032        377
  45.4218        390
  45.4404        341
  45.4590        345
  45.4775        343
  45.4961        383
  45.5147        336
  45.5333        337
  45.5518        359
  45.5704        390
  45.5890        364
  45.6076        360
  45.6261        342
  45.6447        377
  45.6633        356
  45.6819        372
  45.7005        389
  45.7190        361
  45.7376        347
  45.7562        325
  45.7748        382
  45.7933        356
  45.8119        371
  45.8305        374
  45.8491        408
  45.8676        446
  45.8862        413
  45.9048        343
  45.9234        422
  45.9419        382
  45.9605        370
  45.9791        392
  45.9977        412
  46.0162        379
  46.0348        354
  46.0534        342
  46.0720        414
  46.0906        371
  46.1091        359
  46.1277        382
  46.1463        402
  46.1649        397
  46.1834        420
  46.2020        386
  46.2206        419
  46.2392        423
  46.2577        460
  46.2763        427
  46.2949        453
  46.3135        461
  46.3320        497
  46.3506        490
  46.3692        541
  46.3878        657
  46.4063        887
  46.4249       1279
  46.4435       1971
  46.4621       2689
  46.4807       2614
  46.4992       1945
  46.5178       1326
  46.5364       1034
  46.5550       1110
  46.5735       1381
  46.5921       1623
  46.6107       1398
  46.6293       1046
  46.6478        806
  46.6664        594
  46.6850        523
  46.7036        545
  46.7221        477
  46.7407        453
  46.7593        446
  46.7779        435
  46.7965        444
  46.8150        375
  46.8336        404
  46.8522        367
  46.8708        364
  46.8893        363
  46.9079        356
  46.9265        378
  46.9451        383
  46.9636        366
  46.9822        346
  47.0008        333
  47.0194        363
  47.0379        355
  47.0565        368
  47.0751        368
  47.0937        370
  47.1122        333
  47.1308        359
  47.1494        333
  47.1680        329
  47.1866        365
  47.2051        339
  47.2237        331
  47.2423        351
  47.2609        382
  47.2794        364
  47.2980        334
  47.3166        365
  47.3352        363
  47.3537        367
  47.3723        385
  47.3909        406
  47.4095        379
  47.4280        345
  47.4466        348
  47.4652        356
  47.4838        398
  47.5023        373
  47.5209        339
  47.5395        351
  47.5581        372
  47.5767        354
  47.5952        307
  47.6138        333
  47.6324        362
  47.6510        365
  47.6695        350
  47.6881        366
  47.7067        359
  47.7253        380
  47.7438        350
  47.7624        358
  47.7810        375
  47.7996        355
  47.8181        349
  47.8367        346
  47.8553        388
  47.8739        343
  47.8924        328
  47.9110        358
  47.9296        370
  47.9482        332
  47.9668        384
  47.9853        348
  48.0039        343
  48.0225        390
  48.0411        365
  48.0596        373
  48.0782        392
  48.0968        394
  48.1154        448
  48.1339        509
  48.1525        577
  48.1711        465
  48.1897        406
  48.2082        379
  48.2268        416
  48.2454        431
  48.2640        482
  48.2825        428
  48.3011        422
  48.3197        418
  48.3383        399
  48.3569        346
  48.3754        368
  48.3940        329
  48.4126        348
  48.4312        324
  48.4497        356
  48.4683        367
  48.4869        379
  48.5055        347
  48.5240        310
  48.5426        355
  48.5612        322
  48.5798        340
  48.5983        369
  48.6169        351
  48.6355        376
  48.6541        395
  48.6726        372
  48.6912        384
  48.7098        401
  48.7284        402
  48.7470        398
  48.7655        404
  48.7841        390
  48.8027        437
  48.8213        426
  48.8398        481
  48.8584        574
  48.8770        607
  48.8956        687
  48.9141        948
  48.9327       1163
  48.9513       1378
  48.9699       1378
  48.9884       1063
  49.0070        833
  49.0256        706
  49.0442        709
  49.0627        867
  49.0813        887
  49.0999        876
  49.1185        768
  49.1371        571
  49.1556        484
  49.1742        448
  49.1928        417
  49.2114        440
  49.2299        405
  49.2485        403
  49.2671        405
  49.2857        437
  49.3042        396
  49.3228        393
  49.3414        399
  49.3600        418
  49.3785        418
  49.3971        372
  49.4157        388
  49.4343        392
  49.4528        346
  49.4714        362
  49.4900        360
  49.5086        378
  49.5272        390
  49.5457        335
  49.5643        365
  49.5829        333
  49.6015        296
  49.6200        327
  49.6386        306
  49.6572        350
  49.6758        335
  49.6943        314
  49.7129        331
  49.7315        333
  49.7501        341
  49.7686        341
  49.7872        343
  49.8058        343
  49.8244        364
  49.8429        356
  49.8615        372
  49.8801        326
  49.8987        367
  49.9173        357
  49.9358        349
  49.9544        325
  49.9730        307
  49.9916        340
  50.0101        351
  50.0287        355
  50.0473        356
  50.0659        347
  50.0844        327
  50.1030        371
  50.1216        333
  50.1402        344
  50.1587        339
  50.1773        327
  50.1959        320
  50.2145        322
  50.2330        319
  50.2516        332
  50.2702        325
  50.2888        312
  50.3074        355
  50.3259        333
  50.3445        304
  50.3631        342
  50.3817        339
  50.4002        341
  50.4188        326
  50.4374        338
  50.4560        285
  50.4745        312
  50.4931        318
  50.5117        325
  50.5303        293
  50.5488        358
  50.5674        357
  50.5860        309
  50.6046        352
  50.6231        330
  50.6417        334
  50.6603        332
  50.6789        334
  50.6975        328
  50.7160        338
  50.7346        370
  50.7532        307
  50.7718        312
  50.7903        328
  50.8089        339
  50.8275        318
  50.8461        325
  50.8646        326
  50.8832        302
  50.9018        343
  50.9204        332
  50.9389        340
  50.9575        348
  50.9761        355
  50.9947        330
  51.0132        345
  51.0318        345
  51.0504        327
  51.0690        363
  51.0876        306
  51.1061        324
  51.1247        310
  51.1433        346
  51.1619        320
  51.1804        305
  51.1990        332
  51.2176        372
  51.2362        353
  51.2547        295
  51.2733        324
  51.2919        338
  51.3105        315
  51.3290        341
  51.3476        335
  51.3662        344
  51.3848        309
  51.4033        324
  51.4219        383
  51.4405        339
  51.4591        323
  51.4777        326
  51.4962        338
  51.5148        363
  51.5334        355
  51.5520        375
  51.5705        329
  51.5891        378
  51.6077        363
  51.6263        344
  51.6448        428
  51.6634        351
  51.6820        325
  51.7006        344
  51.7191        367
  51.7377        357
  51.7563        371
  51.7749        351
  51.7934        342
  51.8120        347
  51.8306        305
  51.8492        341
  51.8678        336
  51.8863        325
  51.9049        340
  51.9235        352
  51.9421        340
  51.9606        330
  51.9792        360
  51.9978        341
  52.0164        352
  52.0349        359
  52.0535        337
  52.0721        385
  52.0907        346
  52.1092        352
  52.1278        358
  52.1464        366
  52.1650        394
  52.1835        399
  52.2021        397
  52.2207        406
  52.2393        438
  52.2579        436
  52.2764        539
  52.2950        639
  52.3136        874
  52.3322       1265
  52.3507       1348
  52.3693       1089
  52.3879        794
  52.4065        650
  52.4250        540
  52.4436        590
  52.4622        727
  52.4808        861
  52.4993        881
  52.5179        664
  52.5365        527
  52.5551        427
  52.5736        419
  52.5922        383
  52.6108        391
  52.6294        399
  52.6480        400
  52.6665        371
  52.6851        387
  52.7037        366
  52.7223        403
  52.7408        397
  52.7594        370
  52.7780        373
  52.7966        391
  52.8151        399
  52.8337        439
  52.8523        510
  52.8709        631
  52.8894        840
  52.9080       1051
  52.9266       1252
  52.9452       1109
  52.9637        742
  52.9823        610
  53.0009        566
  53.0195        583
  53.0381        649
  53.0566        763
  53.0752        757
  53.0938        665
  53.1124        500
  53.1309        416
  53.1495        404
  53.1681        391
  53.1867        391
  53.2052        370
  53.2238        328
  53.2424        367
  53.2610        357
  53.2795        370
  53.2981        350
  53.3167        336
  53.3353        339
  53.3538        351
  53.3724        305
  53.3910        348
  53.4096        316
  53.4282        301
  53.4467        345
  53.4653        364
  53.4839        337
  53.5025        361
  53.5210        341
  53.5396        349
  53.5582        299
  53.5768        314
  53.5953        315
  53.6139        324
  53.6325        350
  53.6511        333
  53.6696        332
  53.6882        351
  53.7068        304
  53.7254        330
  53.7439        353
  53.7625        358
  53.7811        359
  53.7997        367
  53.8183        370
  53.8368        395
  53.8554        459
  53.8740        502
  53.8926        497
  53.9111        431
  53.9297        351
  53.9483        360
  53.9669        346
  53.9854        339
  54.0040        383
  54.0226        386
  54.0412        419
  54.0597        377
  54.0783        353
  54.0969        341
  54.1155        342
  54.1340        331
  54.1526        360
  54.1712        334
  54.1898        301
  54.2084        350
  54.2269        343
  54.2455        341
  54.2641        328
  54.2827        330
  54.3012        311
  54.3198        319
  54.3384        371
  54.3570        365
  54.3755        350
  54.3941        391
  54.4127        384
  54.4313        380
  54.4498        352
  54.4684        395
  54.4870        373
  54.5056        411
  54.5241        433
  54.5427        483
  54.5613        592
  54.5799        677
  54.5985        877
  54.6170       1186
  54.6356       1366
  54.6542       1327
  54.6728        981
  54.6913        681
  54.7099        610
  54.7285        617
  54.7471        701
  54.7656        794
  54.7842        890
  54.8028        844
  54.8214        631
  54.8399        526
  54.8585        452
  54.8771        413
  54.8957        400
  54.9142        369
  54.9328        360
  54.9514        361
  54.9700        343
  54.9886        326
  55.0071        332
  55.0257        322
  55.0443        325
  55.0629        314
  55.0814        298
  55.1000        334
  55.1186        322
  55.1372        349
  55.1557        334
  55.1743        346
  55.1929        341
  55.2115        320
  55.2300        355
  55.2486        346
  55.2672        324
  55.2858        307
  55.3043        343
  55.3229        322
  55.3415        315
  55.3601        328
  55.3787        329
  55.3972        298
  55.4158        332
  55.4344        326
  55.4530        315
  55.4715        318
  55.4901        319
  55.5087        353
  55.5273        322
  55.5458        335
  55.5644        313
  55.5830        338
  55.6016        316
  55.6201        327
  55.6387        319
  55.6573        316
  55.6759        326
  55.6944        307
  55.7130        334
  55.7316        322
  55.7502        301
  55.7688        313
  55.7873        317
  55.8059        368
  55.8245        337
  55.8431        314
  55.8616        330
  55.8802        339
  55.8988        311
  55.9174        324
  55.9359        320
  55.9545        327
  55.9731        321
  55.9917        310
  56.0102        300
  56.0288        303
  56.0474        304
  56.0660        321
  56.0846        322
  56.1031        327
  56.1217        343
  56.1403        321
  56.1589        290
  56.1774        302
  56.1960        314
  56.2146        350
  56.2332        341
  56.2517        317
  56.2703        303
  56.2889        321
  56.3075        303
  56.3260        305
  56.3446        321
  56.3632        321
  56.3818        313
  56.4003        329
  56.4189        351
  56.4375        306
  56.4561        345
  56.4747        299
  56.4932        314
  56.5118        315
  56.5304        310
  56.5490        327
  56.5675        313
  56.5861        343
  56.6047        318
  56.6233        312
  56.6418        311
  56.6604        313
  56.6790        302
  56.6976        327
  56.7161        323
  56.7347        356
  56.7533        361
  56.7719        327
  56.7904        376
  56.8090        325
  56.8276        339
  56.8462        358
  56.8648        314
  56.8833        331
  56.9019        317
  56.9205        310
  56.9391        312
  56.9576        353
  56.9762        314
  56.9948        322
  57.0134        313
  57.0319        340
  57.0505        326
  57.0691        337
  57.0877        292
  57.1062        326
  57.1248        315
  57.1434        358
  57.1620        353
  57.1805        305
  57.1991        326
  57.2177        315
  57.2363        291
  57.2549        292
  57.2734        304
  57.2920        299
  57.3106        312
  57.3292        280
  57.3477        323
  57.3663        314
  57.3849        341
  57.4035        339
  57.4220        329
  57.4406        363
  57.4592        318
  57.4778        333
  57.4963        326
  57.5149        335
  57.5335        354
  57.5521        332
  57.5706        316
  57.5892        355
  57.6078        331
  57.6264        329
  57.6450        334
  57.6635        330
  57.6821        358
  57.7007        354
  57.7193        323
  57.7378        344
  57.7564        335
  57.7750        345
  57.7936        335
  57.8121        335
  57.8307        350
  57.8493        344
  57.8679        342
  57.8864        357
  57.9050        354
  57.9236        370
  57.9422        371
  57.9607        351
  57.9793        402
  57.9979        367
  58.0165        366
  58.0351        405
  58.0536        381
  58.0722        443
  58.0908        457
  58.1094        439
  58.1279        444
  58.1465        502
  58.1651        472
  58.1837        487
  58.2022        581
  58.2208        662
  58.2394        797
  58.2580       1001
  58.2765       1472
  58.2951       2189
  58.3137       2981
  58.3323       3308
  58.3508       2754
  58.3694       1942
  58.3880       1422
  58.4066       1117
  58.4252       1078
  58.4437       1224
  58.4623       1546
  58.4809       1896
  58.4995       1796
  58.5180       1459
  58.5366        971
  58.5552        738
  58.5738        660
  58.5923        561
  58.6109        541
  58.6295        492
  58.6481        458
  58.6666        414
  58.6852        434
  58.7038        419
  58.7224        426
  58.7409        392
  58.7595        383
  58.7781        345
  58.7967        381
  58.8153        331
  58.8338        342
  58.8524        356
  58.8710        317
  58.8896        334
  58.9081        337
  58.9267        346
  58.9453        321
  58.9639        337
  58.9824        332
  59.0010        388
  59.0196        337
  59.0382        351
  59.0567        313
  59.0753        317
  59.0939        345
  59.1125        332
  59.1310        366
  59.1496        317
  59.1682        345
  59.1868        335
  59.2054        303
  59.2239        376
  59.2425        309
  59.2611        347
  59.2797        344
  59.2982        318
  59.3168        326
  59.3354        348
  59.3540        300
  59.3725        337
  59.3911        291
  59.4097        349
  59.4283        334
  59.4468        387
  59.4654        322
  59.4840        343
  59.5026        328
  59.5211        346
  59.5397        335
  59.5583        337
  59.5769        333
  59.5955        413
  59.6140        351
  59.6326        403
  59.6512        354
  59.6698        415
  59.6883        356
  59.7069        384
  59.7255        350
  59.7441        385
  59.7626        398
  59.7812        424
  59.7998        426
  59.8184        501
  59.8369        551
  59.8555        636
  59.8741        726
  59.8927       1000
  59.9112       1283
  59.9298       1767
  59.9484       1847
  59.9670       1495
