
   5.0000       2122
   5.0186       2041
   5.0372       1903
   5.0557       1902
   5.0743       1848
   5.0929       1880
   5.1115       1915
   5.1300       1782
   5.1486       1834
   5.1672       1825
   5.1858       1733
   5.2043       1812
   5.2229       1763
   5.2415       1725
   5.2601       1797
   5.2786       1765
   5.2972       1812
   5.3158       1783
   5.3344       1721
   5.3529       1648
   5.3715       1665
   5.3901       1764
   5.4087       1703
   5.4273       1684
   5.4458       1688
   5.4644       1687
   5.4830       1735
   5.5016       1622
   5.5201       1641
   5.5387       1642
   5.5573       1634
   5.5759       1634
   5.5944       1648
   5.6130       1575
   5.6316       1596
   5.6502       1691
   5.6687       1578
   5.6873       1583
   5.7059       1461
   5.7245       1574
   5.7430       1527
   5.7616       1483
   5.7802       1470
   5.7988       1601
   5.8174       1516
   5.8359       1515
   5.8545       1487
   5.8731       1443
   5.8917       1485
   5.9102       1450
   5.9288       1454
   5.9474       1445
   5.9660       1479
   5.9845       1411
   6.0031       1396
   6.0217       1439
   6.0403       1423
   6.0588       1423
   6.0774       1336
   6.0960       1439
   6.1146       1416
   6.1331       1354
   6.1517       1342
   6.1703       1357
   6.1889       1339
   6.2075       1418
   6.2260       1310
   6.2446       1388
   6.2632       1292
   6.2818       1341
   6.3003       1308
   6.3189       1308
   6.3375       1420
   6.3561       1321
   6.3746       1289
   6.3932       1353
   6.4118       1311
   6.4304       1304
   6.4489       1309
   6.4675       1308
   6.4861       1343
   6.5047       1271
   6.5232       1249
   6.5418       1271
   6.5604       1231
   6.5790       1262
   6.5976       1259
   6.6161       1276
   6.6347       1200
   6.6533       1264
   6.6719       1259
   6.6904       1297
   6.7090       1244
   6.7276       1172
   6.7462       1139
   6.7647       1170
   6.7833       1233
   6.8019       1150
   6.8205       1264
   6.8390       1192
   6.8576       1149
   6.8762       1168
   6.8948       1235
   6.9133       1201
   6.9319       1216
   6.9505       1194
   6.9691       1189
   6.9877       1156
   7.0062       1124
   7.0248       1148
   7.0434       1172
   7.0620       1197
   7.0805       1169
   7.0991       1231
   7.1177       1166
   7.1363       1109
   7.1548       1152
   7.1734       1065
   7.1920       1106
   7.2106       1099
   7.2291       1138
   7.2477       1121
   7.2663       1187
   7.2849       1161
   7.3034       1109
   7.3220       1113
   7.3406       1157
   7.3592       1138
   7.3778       1153
   7.3963       1086
   7.4149       1083
   7.4335       1095
   7.4521       1054
   7.4706       1105
   7.4892       1110
   7.5078       1061
   7.5264       1101
   7.5449       1151
   7.5635       1118
   7.5821       1099
   7.6007       1109
   7.6192       1100
   7.6378       1091
   7.6564       1112
   7.6750       1172
   7.6935       1081
   7.7121       1126
   7.7307       1094
   7.7493       1063
   7.7679       1148
   7.7864       1088
   7.8050       1054
   7.8236       1159
   7.8422       1096
   7.8607       1062
   7.8793       1072
   7.8979       1077
   7.9165       1105
   7.9350       1063
   7.9536       1117
   7.9722       1062
   7.9908       1083
   8.0093       1066
   8.0279       1083
   8.0465       1162
   8.0651       1083
   8.0836       1090
   8.1022       1107
   8.1208       1168
   8.1394       1077
   8.1580       1127
   8.1765       1145
   8.1951       1086
   8.2137       1085
   8.2323       1146
   8.2508       1109
   8.2694       1070
   8.2880       1065
   8.3066       1103
   8.3251       1060
   8.3437       1082
   8.3623       1157
   8.3809       1133
   8.3994       1101
   8.4180       1054
   8.4366       1033
   8.4552       1100
   8.4737       1090
   8.4923       1110
   8.5109       1100
   8.5295       1040
   8.5481       1093
   8.5666       1117
   8.5852       1108
   8.6038       1119
   8.6224       1081
   8.6409       1072
   8.6595       1060
   8.6781       1119
   8.6967       1118
   8.7152       1097
   8.7338       1117
   8.7524       1067
   8.7710       1082
   8.7895       1045
   8.8081       1077
   8.8267       1107
   8.8453       1047
   8.8638       1090
   8.8824       1091
   8.9010       1060
   8.9196       1060
   8.9382       1042
   8.9567       1129
   8.9753       1113
   8.9939       1042
   9.0125       1098
   9.0310       1040
   9.0496       1036
   9.0682       1028
   9.0868       1034
   9.1053       1079
   9.1239       1079
   9.1425       1050
   9.1611       1113
   9.1796       1100
   9.1982       1090
   9.2168       1047
   9.2354       1100
   9.2539       1122
   9.2725       1046
   9.2911       1075
   9.3097       1103
   9.3283       1060
   9.3468       1067
   9.3654       1080
   9.3840       1068
   9.4026       1068
   9.4211       1081
   9.4397        990
   9.4583       1013
   9.4769       1020
   9.4954       1060
   9.5140       1042
   9.5326       1038
   9.5512       1068
   9.5697       1031
   9.5883       1078
   9.6069       1072
   9.6255       1010
   9.6441       1037
   9.6626       1068
   9.6812       1124
   9.6998       1040
   9.7184       1085
   9.7369       1028
   9.7555       1013
   9.7741        975
   9.7927       1014
   9.8112       1011
   9.8298       1026
   9.8484       1043
   9.8670       1013
   9.8855       1026
   9.9041       1048
   9.9227       1052
   9.9413       1125
   9.9598       1009
   9.9784       1019
   9.9970       1106
  10.0156       1067
  10.0342       1019
  10.0527       1053
  10.0713       1002
  10.0899       1014
  10.1085       1071
  10.1270       1011
  10.1456       1034
  10.1642       1031
  10.1828       1108
  10.2013       1055
  10.2199       1056
  10.2385       1044
  10.2571       1011
  10.2756       1063
  10.2942       1033
  10.3128       1044
  10.3314       1048
  10.3499       1048
  10.3685        972
  10.3871        974
  10.4057       1054
  10.4243       1046
  10.4428       1032
  10.4614       1025
  10.4800       1022
  10.4986        967
  10.5171       1047
  10.5357       1041
  10.5543       1042
  10.5729        979
  10.5914        961
  10.6100       1009
  10.6286       1011
  10.6472       1007
  10.6657       1023
  10.6843       1026
  10.7029       1023
  10.7215       1034
  10.7400       1042
  10.7586       1023
  10.7772       1001
  10.7958       1032
  10.8144        973
  10.8329        978
  10.8515        959
  10.8701        904
  10.8887        976
  10.9072       1035
  10.9258       1029
  10.9444        963
  10.9630        967
  10.9815        917
  11.0001        957
  11.0187        986
  11.0373        941
  11.0558        950
  11.0744        986
  11.0930        985
  11.1116        986
  11.1301        983
  11.1487        926
  11.1673        988
  11.1859        960
  11.2045        942
  11.2230        998
  11.2416        932
  11.2602        970
  11.2788        967
  11.2973        908
  11.3159        910
  11.3345        962
  11.3531        924
  11.3716        900
  11.3902        891
  11.4088        943
  11.4274        917
  11.4459        938
  11.4645        904
  11.4831        973
  11.5017        982
  11.5202        953
  11.5388        975
  11.5574        958
  11.5760        954
  11.5946        943
  11.6131        932
  11.6317        900
  11.6503        880
  11.6689        975
  11.6874        925
  11.7060        897
  11.7246        986
  11.7432        925
  11.7617        919
  11.7803        930
  11.7989        952
  11.8175       1014
  11.8360       1020
  11.8546       1087
  11.8732       1117
  11.8918       1161
  11.9103       1303
  11.9289       1347
  11.9475       1455
  11.9661       1393
  11.9847       1361
  12.0032       1226
  12.0218       1098
  12.0404       1006
  12.0590        978
  12.0775        916
  12.0961        891
  12.1147        910
  12.1333        938
  12.1518        877
  12.1704        913
  12.1890        935
  12.2076        891
  12.2261        883
  12.2447        894
  12.2633        923
  12.2819        880
  12.3004        918
  12.3190        841
  12.3376        861
  12.3562        896
  12.3748        897
  12.3933        859
  12.4119        859
  12.4305        865
  12.4491        929
  12.4676        855
  12.4862        866
  12.5048        868
  12.5234        927
  12.5419        852
  12.5605        812
  12.5791        852
  12.5977        863
  12.6162        873
  12.6348        824
  12.6534        872
  12.6720        844
  12.6905        830
  12.7091        891
  12.7277        841
  12.7463        854
  12.7649        884
  12.7834        846
  12.8020        857
  12.8206        818
  12.8392        828
  12.8577        857
  12.8763        826
  12.8949        798
  12.9135        845
  12.9320        825
  12.9506        814
  12.9692        797
  12.9878        797
  13.0063        841
  13.0249        825
  13.0435        840
  13.0621        850
  13.0806        765
  13.0992        792
  13.1178        795
  13.1364        865
  13.1550        875
  13.1735        870
  13.1921        884
  13.2107        793
  13.2293        824
  13.2478        850
  13.2664        828
  13.2850        794
  13.3036        831
  13.3221        826
  13.3407        783
  13.3593        796
  13.3779        831
  13.3964        783
  13.4150        769
  13.4336        831
  13.4522        829
  13.4707        812
  13.4893        759
  13.5079        829
  13.5265        775
  13.5451        758
  13.5636        803
  13.5822        780
  13.6008        792
  13.6194        832
  13.6379        826
  13.6565        787
  13.6751        811
  13.6937        832
  13.7122        785
  13.7308        770
  13.7494        843
  13.7680        761
  13.7865        771
  13.8051        760
  13.8237        765
  13.8423        810
  13.8608        772
  13.8794        749
  13.8980        712
  13.9166        753
  13.9352        760
  13.9537        723
  13.9723        761
  13.9909        757
  14.0095        734
  14.0280        767
  14.0466        750
  14.0652        743
  14.0838        783
  14.1023        736
  14.1209        769
  14.1395        710
  14.1581        775
  14.1766        739
  14.1952        721
  14.2138        738
  14.2324        809
  14.2509        734
  14.2695        731
  14.2881        787
  14.3067        755
  14.3253        750
  14.3438        783
  14.3624        734
  14.3810        799
  14.3996        720
  14.4181        775
  14.4367        730
  14.4553        733
  14.4739        736
  14.4924        738
  14.5110        774
  14.5296        718
  14.5482        748
  14.5667        672
  14.5853        740
  14.6039        688
  14.6225        743
  14.6410        690
  14.6596        699
  14.6782        724
  14.6968        708
  14.7154        729
  14.7339        715
  14.7525        738
  14.7711        775
  14.7897        754
  14.8082        707
  14.8268        747
  14.8454        731
  14.8640        764
  14.8825        697
  14.9011        707
  14.9197        698
  14.9383        725
  14.9568        716
  14.9754        748
  14.9940        715
  15.0126        721
  15.0311        703
  15.0497        757
  15.0683        699
  15.0869        717
  15.1055        701
  15.1240        709
  15.1426        638
  15.1612        722
  15.1798        735
  15.1983        700
  15.2169        702
  15.2355        709
  15.2541        722
  15.2726        715
  15.2912        730
  15.3098        750
  15.3284        714
  15.3469        726
  15.3655        679
  15.3841        713
  15.4027        731
  15.4212        747
  15.4398        729
  15.4584        688
  15.4770        647
  15.4956        729
  15.5141        726
  15.5327        641
  15.5513        674
  15.5699        733
  15.5884        709
  15.6070        709
  15.6256        658
  15.6442        700
  15.6627        750
  15.6813        704
  15.6999        687
  15.7185        742
  15.7370        664
  15.7556        704
  15.7742        686
  15.7928        735
  15.8113        710
  15.8299        744
  15.8485        698
  15.8671        696
  15.8857        701
  15.9042        695
  15.9228        732
  15.9414        754
  15.9600        761
  15.9785        736
  15.9971        674
  16.0157        726
  16.0343        712
  16.0528        690
  16.0714        684
  16.0900        714
  16.1086        715
  16.1271        661
  16.1457        693
  16.1643        702
  16.1829        717
  16.2014        730
  16.2200        730
  16.2386        714
  16.2572        686
  16.2758        700
  16.2943        720
  16.3129        683
  16.3315        650
  16.3501        688
  16.3686        702
  16.3872        713
  16.4058        649
  16.4244        733
  16.4429        694
  16.4615        665
  16.4801        680
  16.4987        699
  16.5172        706
  16.5358        717
  16.5544        714
  16.5730        720
  16.5915        715
  16.6101        707
  16.6287        716
  16.6473        726
  16.6659        698
  16.6844        724
  16.7030        710
  16.7216        691
  16.7402        736
  16.7587        725
  16.7773        684
  16.7959        693
  16.8145        770
  16.8330        721
  16.8516        697
  16.8702        698
  16.8888        703
  16.9073        700
  16.9259        643
  16.9445        679
  16.9631        752
  16.9816        690
  17.0002        711
  17.0188        715
  17.0374        752
  17.0560        697
  17.0745        665
  17.0931        702
  17.1117        708
  17.1303        727
  17.1488        739
  17.1674        695
  17.1860        687
  17.2046        706
  17.2231        661
  17.2417        682
  17.2603        688
  17.2789        704
  17.2974        700
  17.3160        705
  17.3346        697
  17.3532        727
  17.3717        748
  17.3903        676
  17.4089        706
  17.4275        714
  17.4461        697
  17.4646        694
  17.4832        714
  17.5018        726
  17.5204        682
  17.5389        683
  17.5575        705
  17.5761        683
  17.5947        670
  17.6132        667
  17.6318        731
  17.6504        690
  17.6690        769
  17.6875        682
  17.7061        665
  17.7247        680
  17.7433        664
  17.7618        709
  17.7804        722
  17.7990        727
  17.8176        682
  17.8362        690
  17.8547        683
  17.8733        691
  17.8919        656
  17.9105        708
  17.9290        694
  17.9476        685
  17.9662        722
  17.9848        692
  18.0033        709
  18.0219        741
  18.0405        712
  18.0591        728
  18.0776        664
  18.0962        707
  18.1148        699
  18.1334        698
  18.1519        689
  18.1705        704
  18.1891        725
  18.2077        728
  18.2263        693
  18.2448        681
  18.2634        682
  18.2820        715
  18.3006        669
  18.3191        702
  18.3377        762
  18.3563        697
  18.3749        749
  18.3934        690
  18.4120        687
  18.4306        668
  18.4492        762
  18.4677        755
  18.4863        729
  18.5049        710
  18.5235        717
  18.5420        721
  18.5606        712
  18.5792        708
  18.5978        730
  18.6164        675
  18.6349        713
  18.6535        705
  18.6721        713
  18.6907        766
  18.7092        743
  18.7278        722
  18.7464        695
  18.7650        713
  18.7835        748
  18.8021        719
  18.8207        750
  18.8393        692
  18.8578        726
  18.8764        681
  18.8950        702
  18.9136        695
  18.9322        706
  18.9507        706
  18.9693        725
  18.9879        745
  19.0065        680
  19.0250        704
  19.0436        725
  19.0622        701
  19.0808        700
  19.0993        679
  19.1179        683
  19.1365        685
  19.1551        703
  19.1736        703
  19.1922        697
  19.2108        678
  19.2294        694
  19.2479        732
  19.2665        716
  19.2851        756
  19.3037        706
  19.3223        700
  19.3408        728
  19.3594        697
  19.3780        722
  19.3966        737
  19.4151        669
  19.4337        703
  19.4523        681
  19.4709        687
  19.4894        678
  19.5080        707
  19.5266        659
  19.5452        700
  19.5637        687
  19.5823        724
  19.6009        694
  19.6195        724
  19.6380        746
  19.6566        788
  19.6752        750
  19.6938        691
  19.7124        717
  19.7309        718
  19.7495        738
  19.7681        702
  19.7867        689
  19.8052        716
  19.8238        720
  19.8424        768
  19.8610        728
  19.8795        759
  19.8981        713
  19.9167        693
  19.9353        697
  19.9538        712
  19.9724        718
  19.9910        698
  20.0096        759
  20.0281        738
  20.0467        708
  20.0653        719
  20.0839        757
  20.1025        720
  20.1210        720
  20.1396        706
  20.1582        747
  20.1768        703
  20.1953        711
  20.2139        719
  20.2325        727
  20.2511        756
  20.2696        715
  20.2882        700
  20.3068        727
  20.3254        721
  20.3439        737
  20.3625        726
  20.3811        678
  20.3997        730
  20.4182        681
  20.4368        697
  20.4554        723
  20.4740        713
  20.4926        775
  20.5111        733
  20.5297        733
  20.5483        756
  20.5669        707
  20.5854        736
  20.6040        699
  20.6226        689
  20.6412        751
  20.6597        702
  20.6783        707
  20.6969        736
  20.7155        694
  20.7340        686
  20.7526        650
  20.7712        766
  20.7898        712
  20.8083        711
  20.8269        741
  20.8455        780
  20.8641        740
  20.8827        720
  20.9012        729
  20.9198        727
  20.9384        730
  20.9570        722
  20.9755        714
  20.9941        740
  21.0127        743
  21.0313        714
  21.0498        716
  21.0684        720
  21.0870        699
  21.1056        717
  21.1241        692
  21.1427        769
  21.1613        724
  21.1799        730
  21.1984        733
  21.2170        697
  21.2356        722
  21.2542        745
  21.2728        720
  21.2913        751
  21.3099        753
  21.3285        761
  21.3471        745
  21.3656        721
  21.3842        739
  21.4028        717
  21.4214        780
  21.4399        724
  21.4585        751
  21.4771        692
  21.4957        751
  21.5142        745
  21.5328        705
  21.5514        715
  21.5700        732
  21.5885        713
  21.6071        724
  21.6257        738
  21.6443        733
  21.6629        759
  21.6814        747
  21.7000        752
  21.7186        755
  21.7372        721
  21.7557        718
  21.7743        783
  21.7929        713
  21.8115        737
  21.8300        822
  21.8486        720
  21.8672        686
  21.8858        688
  21.9043        759
  21.9229        680
  21.9415        717
  21.9601        729
  21.9786        750
  21.9972        720
  22.0158        759
  22.0344        742
  22.0530        778
  22.0715        754
  22.0901        768
  22.1087        725
  22.1273        753
  22.1458        754
  22.1644        704
  22.1830        778
  22.2016        761
  22.2201        665
  22.2387        738
  22.2573        703
  22.2759        774
  22.2944        820
  22.3130        695
  22.3316        750
  22.3502        702
  22.3687        756
  22.3873        719
  22.4059        768
  22.4245        761
  22.4431        745
  22.4616        735
  22.4802        752
  22.4988        729
  22.5174        763
  22.5359        745
  22.5545        742
  22.5731        696
  22.5917        784
  22.6102        695
  22.6288        766
  22.6474        719
  22.6660        751
  22.6845        800
  22.7031        802
  22.7217        775
  22.7403        792
  22.7588        781
  22.7774        823
  22.7960        989
  22.8146       1062
  22.8332       1422
  22.8517       1788
  22.8703       2425
  22.8889       2754
  22.9075       2466
  22.9260       2176
  22.9446       1895
  22.9632       1554
  22.9818       1124
  23.0003        996
  23.0189        851
  23.0375        834
  23.0561        848
  23.0746        777
  23.0932        749
  23.1118        758
  23.1304        741
  23.1489        752
  23.1675        747
  23.1861        715
  23.2047        765
  23.2233        728
  23.2418        704
  23.2604        711
  23.2790        726
  23.2976        769
  23.3161        758
  23.3347        746
  23.3533        756
  23.3719        784
  23.3904        697
  23.4090        757
  23.4276        756
  23.4462        656
  23.4647        724
  23.4833        714
  23.5019        706
  23.5205        739
  23.5390        719
  23.5576        753
  23.5762        681
  23.5948        750
  23.6134        746
  23.6319        762
  23.6505        743
  23.6691        722
  23.6877        729
  23.7062        742
  23.7248        724
  23.7434        728
  23.7620        734
  23.7805        703
  23.7991        785
  23.8177        764
  23.8363        728
  23.8548        713
  23.8734        759
  23.8920        747
  23.9106        744
  23.9291        850
  23.9477        926
  23.9663        972
  23.9849       1145
  24.0035       1323
  24.0220       1652
  24.0406       1761
  24.0592       1485
  24.0778       1339
  24.0963       1228
  24.1149       1126
  24.1335        953
  24.1521        799
  24.1706        782
  24.1892        761
  24.2078        783
  24.2264        780
  24.2449        711
  24.2635        773
  24.2821        756
  24.3007        761
  24.3192        709
  24.3378        747
  24.3564        697
  24.3750        729
  24.3936        721
  24.4121        733
  24.4307        639
  24.4493        693
  24.4679        726
  24.4864        687
  24.5050        733
  24.5236        700
  24.5422        741
  24.5607        681
  24.5793        708
  24.5979        739
  24.6165        708
  24.6350        750
  24.6536        689
  24.6722        749
  24.6908        705
  24.7093        710
  24.7279        703
  24.7465        718
  24.7651        665
  24.7837        717
  24.8022        707
  24.8208        708
  24.8394        694
  24.8580        698
  24.8765        699
  24.8951        741
  24.9137        726
  24.9323        752
  24.9508        714
  24.9694        759
  24.9880        737
  25.0066        704
  25.0251        689
  25.0437        737
  25.0623        648
  25.0809        668
  25.0994        727
  25.1180        681
  25.1366        688
  25.1552        693
  25.1738        720
  25.1923        682
  25.2109        691
  25.2295        696
  25.2481        710
  25.2666        648
  25.2852        733
  25.3038        717
  25.3224        708
  25.3409        647
  25.3595        714
  25.3781        645
  25.3967        680
  25.4152        680
  25.4338        746
  25.4524        700
  25.4710        693
  25.4895        684
  25.5081        719
  25.5267        723
  25.5453        684
  25.5639        717
  25.5824        670
  25.6010        689
  25.6196        663
  25.6382        732
  25.6567        658
  25.6753        667
  25.6939        654
  25.7125        694
  25.7310        758
  25.7496        691
  25.7682        748
  25.7868        698
  25.8053        685
  25.8239        769
  25.8425        766
  25.8611        788
  25.8796        859
  25.8982        818
  25.9168        818
  25.9354        765
  25.9540        804
  25.9725        769
  25.9911        702
  26.0097        678
  26.0283        666
  26.0468        628
  26.0654        644
  26.0840        691
  26.1026        616
  26.1211        689
  26.1397        693
  26.1583        680
  26.1769        660
  26.1954        663
  26.2140        690
  26.2326        671
  26.2512        691
  26.2697        628
  26.2883        683
  26.3069        701
  26.3255        662
  26.3441        661
  26.3626        628
  26.3812        671
  26.3998        664
  26.4184        674
  26.4369        709
  26.4555        677
  26.4741        692
  26.4927        682
  26.5112        637
  26.5298        675
  26.5484        704
  26.5670        605
  26.5855        661
  26.6041        665
  26.6227        693
  26.6413        680
  26.6598        706
  26.6784        688
  26.6970        668
  26.7156        640
  26.7342        676
  26.7527        650
  26.7713        675
  26.7899        681
  26.8085        646
  26.8270        640
  26.8456        649
  26.8642        649
  26.8828        606
  26.9013        735
  26.9199        686
  26.9385        646
  26.9571        658
  26.9756        627
  26.9942        688
  27.0128        669
  27.0314        654
  27.0499        601
  27.0685        675
  27.0871        659
  27.1057        629
  27.1243        677
  27.1428        682
  27.1614        647
  27.1800        613
  27.1986        641
  27.2171        633
  27.2357        661
  27.2543        666
  27.2729        635
  27.2914        639
  27.3100        627
  27.3286        642
  27.3472        610
  27.3657        602
  27.3843        617
  27.4029        640
  27.4215        681
  27.4400        670
  27.4586        619
  27.4772        622
  27.4958        632
  27.5144        669
  27.5329        593
  27.5515        608
  27.5701        626
  27.5887        621
  27.6072        673
  27.6258        642
  27.6444        602
  27.6630        647
  27.6815        646
  27.7001        634
  27.7187        631
  27.7373        694
  27.7558        654
  27.7744        625
  27.7930        667
  27.8116        623
  27.8301        652
  27.8487        620
  27.8673        630
  27.8859        622
  27.9045        618
  27.9230        637
  27.9416        590
  27.9602        662
  27.9788        596
  27.9973        616
  28.0159        644
  28.0345        637
  28.0531        601
  28.0716        669
  28.0902        699
  28.1088        738
  28.1274        755
  28.1459        684
  28.1645        725
  28.1831        726
  28.2017        704
  28.2203        660
  28.2388        667
  28.2574        603
  28.2760        685
  28.2946        602
  28.3131        597
  28.3317        621
  28.3503        639
  28.3689        651
  28.3874        586
  28.4060        628
  28.4246        595
  28.4432        615
  28.4617        593
  28.4803        557
  28.4989        605
  28.5175        611
  28.5360        559
  28.5546        547
  28.5732        665
  28.5918        640
  28.6104        591
  28.6289        595
  28.6475        645
  28.6661        592
  28.6847        615
  28.7032        604
  28.7218        627
  28.7404        627
  28.7590        621
  28.7775        603
  28.7961        562
  28.8147        586
  28.8333        566
  28.8518        617
  28.8704        617
  28.8890        574
  28.9076        614
  28.9261        592
  28.9447        585
  28.9633        612
  28.9819        613
  29.0005        596
  29.0190        575
  29.0376        585
  29.0562        610
  29.0748        582
  29.0933        593
  29.1119        573
  29.1305        552
  29.1491        592
  29.1676        597
  29.1862        562
  29.2048        579
  29.2234        595
  29.2419        609
  29.2605        635
  29.2791        622
  29.2977        564
  29.3162        615
  29.3348        594
  29.3534        599
  29.3720        584
  29.3906        602
  29.4091        557
  29.4277        574
  29.4463        605
  29.4649        594
  29.4834        550
  29.5020        570
  29.5206        580
  29.5392        599
  29.5577        573
  29.5763        559
  29.5949        598
  29.6135        530
  29.6320        553
  29.6506        592
  29.6692        563
  29.6878        542
  29.7063        595
  29.7249        573
  29.7435        609
  29.7621        589
  29.7807        568
  29.7992        560
  29.8178        554
  29.8364        581
  29.8550        601
  29.8735        594
  29.8921        650
  29.9107        650
  29.9293        664
  29.9478        651
  29.9664        607
  29.9850        608
  30.0036        583
  30.0221        572
  30.0407        632
  30.0593        595
  30.0779        553
  30.0964        570
  30.1150        571
  30.1336        523
  30.1522        617
  30.1708        541
  30.1893        598
  30.2079        580
  30.2265        567
  30.2451        527
  30.2636        568
  30.2822        561
  30.3008        571
  30.3194        543
  30.3379        535
  30.3565        547
  30.3751        603
  30.3937        558
  30.4122        553
  30.4308        551
  30.4494        518
  30.4680        560
  30.4865        545
  30.5051        581
  30.5237        610
  30.5423        557
  30.5609        538
  30.5794        560
  30.5980        572
  30.6166        583
  30.6352        508
  30.6537        527
  30.6723        562
  30.6909        507
  30.7095        536
  30.7280        521
  30.7466        536
  30.7652        520
  30.7838        545
  30.8023        519
  30.8209        563
  30.8395        534
  30.8581        494
  30.8766        563
  30.8952        570
  30.9138        558
  30.9324        594
  30.9510        578
  30.9695        534
  30.9881        511
  31.0067        543
  31.0253        586
  31.0438        617
  31.0624        543
  31.0810        512
  31.0996        542
  31.1181        582
  31.1367        529
  31.1553        515
  31.1739        550
  31.1924        538
  31.2110        516
  31.2296        527
  31.2482        496
  31.2667        501
  31.2853        512
  31.3039        498
  31.3225        528
  31.3411        526
  31.3596        567
  31.3782        519
  31.3968        519
  31.4154        543
  31.4339        547
  31.4525        498
  31.4711        485
  31.4897        534
  31.5082        568
  31.5268        534
  31.5454        565
  31.5640        575
  31.5825        574
  31.6011        508
  31.6197        565
  31.6383        545
  31.6568        519
  31.6754        517
  31.6940        533
  31.7126        531
  31.7312        532
  31.7497        552
  31.7683        516
  31.7869        506
  31.8055        516
  31.8240        530
  31.8426        469
  31.8612        535
  31.8798        516
  31.8983        494
  31.9169        572
  31.9355        571
  31.9541        512
  31.9726        498
  31.9912        535
  32.0098        537
  32.0284        552
  32.0469        529
  32.0655        504
  32.0841        518
  32.1027        553
  32.1213        551
  32.1398        508
  32.1584        599
  32.1770        499
  32.1956        558
  32.2141        540
  32.2327        561
  32.2513        597
  32.2699        536
  32.2884        565
  32.3070        598
  32.3256        593
  32.3442        580
  32.3627        596
  32.3813        625
  32.3999        581
  32.4185        633
  32.4370        670
  32.4556        678
  32.4742        662
  32.4928        791
  32.5114       1040
  32.5299       1433
  32.5485       2216
  32.5671       3041
  32.5857       3121
  32.6042       2568
  32.6228       2009
  32.6414       1908
  32.6600       2023
  32.6785       1633
  32.6971       1239
  32.7157        846
  32.7343        698
  32.7528        645
  32.7714        608
  32.7900        637
  32.8086        611
  32.8271        590
  32.8457        550
  32.8643        575
  32.8829        557
  32.9015        564
  32.9200        545
  32.9386        516
  32.9572        545
  32.9758        518
  32.9943        528
  33.0129        553
  33.0315        513
  33.0501        581
  33.0686        589
  33.0872        611
  33.1058        611
  33.1244        545
  33.1429        589
  33.1615        634
  33.1801        631
  33.1987        617
  33.2172        679
  33.2358        700
  33.2544        697
  33.2730        772
  33.2916        839
  33.3101        957
  33.3287       1177
  33.3473       1707
  33.3659       2619
  33.3844       3872
  33.4030       5484
  33.4216       6051
  33.4402       5126
  33.4587       3752
  33.4773       3359
  33.4959       3491
  33.5145       3167
  33.5330       2286
  33.5516       1466
  33.5702        997
  33.5888        822
  33.6073        728
  33.6259        701
  33.6445        651
  33.6631        594
  33.6817        632
  33.7002        552
  33.7188        543
  33.7374        523
  33.7560        566
  33.7745        514
  33.7931        542
  33.8117        526
  33.8303        460
  33.8488        489
  33.8674        528
  33.8860        493
  33.9046        507
  33.9231        506
  33.9417        501
  33.9603        479
  33.9789        500
  33.9974        530
  34.0160        510
  34.0346        474
  34.0532        494
  34.0718        493
  34.0903        477
  34.1089        483
  34.1275        505
  34.1461        492
  34.1646        493
  34.1832        456
  34.2018        433
  34.2204        445
  34.2389        458
  34.2575        516
  34.2761        483
  34.2947        487
  34.3132        472
  34.3318        518
  34.3504        494
  34.3690        470
  34.3875        454
  34.4061        486
  34.4247        465
  34.4433        435
  34.4619        408
  34.4804        447
  34.4990        478
  34.5176        491
  34.5362        477
  34.5547        486
  34.5733        510
  34.5919        460
  34.6105        494
  34.6290        450
  34.6476        447
  34.6662        472
  34.6848        444
  34.7033        493
  34.7219        493
  34.7405        477
  34.7591        469
  34.7776        447
  34.7962        508
  34.8148        531
  34.8334        501
  34.8520        501
  34.8705        526
  34.8891        490
  34.9077        495
  34.9263        500
  34.9448        502
  34.9634        478
  34.9820        466
  35.0006        464
  35.0191        428
  35.0377        436
  35.0563        478
  35.0749        429
  35.0934        430
  35.1120        471
  35.1306        473
  35.1492        460
  35.1677        494
  35.1863        447
  35.2049        494
  35.2235        447
  35.2421        428
  35.2606        467
  35.2792        467
  35.2978        457
  35.3164        451
  35.3349        443
  35.3535        446
  35.3721        474
  35.3907        426
  35.4092        453
  35.4278        469
  35.4464        475
  35.4650        469
  35.4835        469
  35.5021        472
  35.5207        508
  35.5393        489
  35.5578        488
  35.5764        473
  35.5950        492
  35.6136        504
  35.6322        519
  35.6507        500
  35.6693        452
  35.6879        495
  35.7065        514
  35.7250        490
  35.7436        467
  35.7622        461
  35.7808        444
  35.7993        446
  35.8179        464
  35.8365        424
  35.8551        411
  35.8736        445
  35.8922        470
  35.9108        432
  35.9294        399
  35.9479        439
  35.9665        439
  35.9851        439
  36.0037        464
  36.0223        416
  36.0408        460
  36.0594        403
  36.0780        428
  36.0966        443
  36.1151        426
  36.1337        444
  36.1523        413
  36.1709        445
  36.1894        432
  36.2080        437
  36.2266        432
  36.2452        461
  36.2637        441
  36.2823        476
  36.3009        512
  36.3195        496
  36.3380        560
  36.3566        559
  36.3752        626
  36.3938        546
  36.4124        548
  36.4309        547
  36.4495        529
  36.4681        532
  36.4867        538
  36.5052        490
  36.5238        483
  36.5424        470
  36.5610        429
  36.5795        445
  36.5981        429
  36.6167        459
  36.6353        461
  36.6538        443
  36.6724        403
  36.6910        416
  36.7096        452
  36.7281        425
  36.7467        406
  36.7653        441
  36.7839        407
  36.8025        432
  36.8210        426
  36.8396        402
  36.8582        408
  36.8768        432
  36.8953        419
  36.9139        440
  36.9325        453
  36.9511        413
  36.9696        414
  36.9882        393
  37.0068        417
  37.0254        407
  37.0439        437
  37.0625        427
  37.0811        425
  37.0997        394
  37.1182        423
  37.1368        446
  37.1554        417
  37.1740        436
  37.1926        445
  37.2111        404
  37.2297        399
  37.2483        414
  37.2669        398
  37.2854        434
  37.3040        408
  37.3226        418
  37.3412        415
  37.3597        371
  37.3783        414
  37.3969        413
  37.4155        428
  37.4340        401
  37.4526        400
  37.4712        449
  37.4898        394
  37.5084        408
  37.5269        422
  37.5455        394
  37.5641        419
  37.5827        400
  37.6012        412
  37.6198        403
  37.6384        426
  37.6570        426
  37.6755        395
  37.6941        405
  37.7127        399
  37.7313        408
  37.7498        420
  37.7684        416
  37.7870        394
  37.8056        426
  37.8241        419
  37.8427        395
  37.8613        412
  37.8799        409
  37.8985        382
  37.9170        365
  37.9356        415
  37.9542        402
  37.9728        397
  37.9913        379
  38.0099        432
  38.0285        409
  38.0471        386
  38.0656        439
  38.0842        370
  38.1028        423
  38.1214        409
  38.1399        392
  38.1585        413
  38.1771        396
  38.1957        457
  38.2142        417
  38.2328        355
  38.2514        403
  38.2700        368
  38.2886        392
  38.3071        399
  38.3257        406
  38.3443        425
  38.3629        376
  38.3814        414
  38.4000        408
  38.4186        402
  38.4372        385
  38.4557        413
  38.4743        423
  38.4929        393
  38.5115        407
  38.5300        439
  38.5486        458
  38.5672        429
  38.5858        468
  38.6043        435
  38.6229        405
  38.6415        406
  38.6601        426
  38.6787        433
  38.6972        410
  38.7158        458
  38.7344        459
  38.7530        431
  38.7715        445
  38.7901        447
  38.8087        456
  38.8273        427
  38.8458        441
  38.8644        453
  38.8830        440
  38.9016        409
  38.9201        426
  38.9387        404
  38.9573        420
  38.9759        452
  38.9944        429
  39.0130        371
  39.0316        416
  39.0502        397
  39.0688        393
  39.0873        405
  39.1059        419
  39.1245        371
  39.1431        369
  39.1616        407
  39.1802        401
  39.1988        371
  39.2174        395
  39.2359        357
  39.2545        378
  39.2731        410
  39.2917        391
  39.3102        423
  39.3288        365
  39.3474        404
  39.3660        401
  39.3845        358
  39.4031        398
  39.4217        415
  39.4403        429
  39.4589        383
  39.4774        380
  39.4960        393
  39.5146        379
  39.5332        395
  39.5517        401
  39.5703        417
  39.5889        383
  39.6075        371
  39.6260        391
  39.6446        349
  39.6632        370
  39.6818        338
  39.7003        370
  39.7189        366
  39.7375        391
  39.7561        378
  39.7746        392
  39.7932        366
  39.8118        417
  39.8304        390
  39.8490        363
  39.8675        401
  39.8861        373
  39.9047        407
  39.9233        432
  39.9418        406
  39.9604        383
  39.9790        395
  39.9976        384
  40.0161        417
  40.0347        413
  40.0533        371
  40.0719        358
  40.0904        375
  40.1090        388
  40.1276        418
  40.1462        391
  40.1647        394
  40.1833        403
  40.2019        369
  40.2205        405
  40.2391        387
  40.2576        374
  40.2762        397
  40.2948        390
  40.3134        369
  40.3319        392
  40.3505        381
  40.3691        423
  40.3877        373
  40.4062        445
  40.4248        417
  40.4434        365
  40.4620        396
  40.4805        378
  40.4991        400
  40.5177        401
  40.5363        397
  40.5548        427
  40.5734        400
  40.5920        382
  40.6106        450
  40.6292        427
  40.6477        439
  40.6663        468
  40.6849        417
  40.7035        469
  40.7220        488
  40.7406        506
  40.7592        523
  40.7778        566
  40.7963        642
  40.8149        850
  40.8335       1160
  40.8521       1684
  40.8706       2312
  40.8892       2299
  40.9078       1756
  40.9264       1314
  40.9449       1163
  40.9635       1282
  40.9821       1461
  41.0007       1321
  41.0193        966
  41.0378        731
  41.0564        552
  41.0750        518
  41.0936        492
  41.1121        444
  41.1307        403
  41.1493        395
  41.1679        405
  41.1864        425
  41.2050        391
  41.2236        409
  41.2422        369
  41.2607        389
  41.2793        357
  41.2979        396
  41.3165        410
  41.3350        392
  41.3536        388
  41.3722        383
  41.3908        402
  41.4094        354
  41.4279        393
  41.4465        378
  41.4651        395
  41.4837        355
  41.5022        395
  41.5208        382
  41.5394        382
  41.5580        382
  41.5765        380
  41.5951        398
  41.6137        398
  41.6323        349
  41.6508        382
  41.6694        365
  41.6880        359
  41.7066        369
  41.7251        421
  41.7437        373
  41.7623        367
  41.7809        367
  41.7995        394
  41.8180        388
  41.8366        368
  41.8552        398
  41.8738        372
  41.8923        391
  41.9109        367
  41.9295        393
  41.9481        401
  41.9666        375
  41.9852        388
  42.0038        376
  42.0224        368
  42.0409        395
  42.0595        354
  42.0781        381
  42.0967        338
  42.1152        390
  42.1338        345
  42.1524        363
  42.1710        372
  42.1896        376
  42.2081        380
  42.2267        386
  42.2453        378
  42.2639        368
  42.2824        398
  42.3010        367
  42.3196        383
  42.3382        375
  42.3567        386
  42.3753        384
  42.3939        370
  42.4125        393
  42.4310        394
  42.4496        400
  42.4682        384
  42.4868        360
  42.5053        371
  42.5239        390
  42.5425        387
  42.5611        385
  42.5797        392
  42.5982        394
  42.6168        357
  42.6354        365
  42.6540        352
  42.6725        404
  42.6911        390
  42.7097        390
  42.7283        363
  42.7468        384
  42.7654        366
  42.7840        374
  42.8026        370
  42.8211        369
  42.8397        398
  42.8583        356
  42.8769        400
  42.8954        401
  42.9140        343
  42.9326        352
  42.9512        367
  42.9698        382
  42.9883        394
  43.0069        380
  43.0255        403
  43.0441        351
  43.0626        401
  43.0812        396
  43.0998        355
  43.1184        363
  43.1369        383
  43.1555        360
  43.1741        382
  43.1927        383
  43.2112        402
  43.2298        405
  43.2484        412
  43.2670        381
  43.2855        387
  43.3041        403
  43.3227        434
  43.3413        427
  43.3599        451
  43.3784        537
  43.3970        597
  43.4156        604
  43.4342        622
  43.4527        476
  43.4713        429
  43.4899        458
  43.5085        498
  43.5270        499
  43.5456        451
  43.5642        433
  43.5828        403
  43.6013        405
  43.6199        392
  43.6385        405
  43.6571        355
  43.6756        406
  43.6942        408
  43.7128        379
  43.7314        356
  43.7500        353
  43.7685        327
  43.7871        377
  43.8057        366
  43.8243        407
  43.8428        381
  43.8614        399
  43.8800        364
  43.8986        353
  43.9171        406
  43.9357        366
  43.9543        348
  43.9729        359
  43.9914        358
  44.0100        338
  44.0286        393
  44.0472        349
  44.0657        391
  44.0843        393
  44.1029        370
  44.1215        405
  44.1401        352
  44.1586        383
  44.1772        351
  44.1958        353
  44.2144        356
  44.2329        374
  44.2515        391
  44.2701        381
  44.2887        367
  44.3072        397
  44.3258        365
  44.3444        378
  44.3630        357
  44.3815        355
  44.4001        391
  44.4187        371
  44.4373        392
  44.4558        379
  44.4744        372
  44.4930        347
  44.5116        356
  44.5302        376
  44.5487        337
  44.5673        384
  44.5859        354
  44.6045        358
  44.6230        373
  44.6416        364
  44.6602        371
  44.6788        334
  44.6973        378
  44.7159        338
  44.7345        391
  44.7531        371
  44.7716        346
  44.7902        385
  44.8088        399
  44.8274        328
  44.8459        375
  44.8645        388
  44.8831        361
  44.9017        386
  44.9203        362
  44.9388        366
  44.9574        364
  44.9760        388
  44.9946        385
  45.0131        353
  45.0317        394
  45.0503        397
  45.0689        347
  45.0874        383
  45.1060        413
  45.1246        376
  45.1432        354
  45.1617        378
  45.1803        385
  45.1989        380
  45.2175        396
  45.2360        377
  45.2546        354
  45.2732        349
  45.2918        390
  45.3104        379
  45.3289        389
  45.3475        354
  45.3661        360
  45.3847        349
  45.4032        373
  45.4218        347
  45.4404        379
  45.4590        382
  45.4775        364
  45.4961        348
  45.5147        346
  45.5333        355
  45.5518        367
  45.5704        374
  45.5890        348
  45.6076        362
  45.6261        340
  45.6447        360
  45.6633        377
  45.6819        401
  45.7005        388
  45.7190        379
  45.7376        395
  45.7562        369
  45.7748        370
  45.7933        370
  45.8119        384
  45.8305        344
  45.8491        376
  45.8676        369
  45.8862        385
  45.9048        368
  45.9234        346
  45.9419        368
  45.9605        322
  45.9791        394
  45.9977        372
  46.0162        370
  46.0348        365
  46.0534        350
  46.0720        422
  46.0906        357
  46.1091        406
  46.1277        352
  46.1463        390
  46.1649        337
  46.1834        416
  46.2020        398
  46.2206        321
  46.2392        344
  46.2577        417
  46.2763        388
  46.2949        384
  46.3135        400
  46.3320        405
  46.3506        375
  46.3692        388
  46.3878        365
  46.4063        416
  46.4249        417
  46.4435        397
  46.4621        396
  46.4807        402
  46.4992        438
  46.5178        406
  46.5364        424
  46.5550        447
  46.5735        446
  46.5921        407
  46.6107        464
  46.6293        522
  46.6478        580
  46.6664        817
  46.6850       1133
  46.7036       1491
  46.7221       1789
  46.7407       1607
  46.7593       1243
  46.7779        991
  46.7965        852
  46.8150        891
  46.8336       1064
  46.8522       1075
  46.8708        932
  46.8893        691
  46.9079        619
  46.9265        519
  46.9451        487
  46.9636        440
  46.9822        390
  47.0008        377
  47.0194        400
  47.0379        390
  47.0565        387
  47.0751        374
  47.0937        389
  47.1122        341
  47.1308        394
  47.1494        362
  47.1680        366
  47.1866        367
  47.2051        358
  47.2237        383
  47.2423        385
  47.2609        371
  47.2794        372
  47.2980        358
  47.3166        367
  47.3352        352
  47.3537        340
  47.3723        359
  47.3909        407
  47.4095        324
  47.4280        360
  47.4466        379
  47.4652        360
  47.4838        367
  47.5023        350
  47.5209        362
  47.5395        336
  47.5581        367
  47.5767        333
  47.5952        343
  47.6138        336
  47.6324        380
  47.6510        351
  47.6695        342
  47.6881        382
  47.7067        339
  47.7253        364
  47.7438        351
  47.7624        359
  47.7810        354
  47.7996        371
  47.8181        355
  47.8367        338
  47.8553        341
  47.8739        358
  47.8924        365
  47.9110        346
  47.9296        352
  47.9482        344
  47.9668        355
  47.9853        362
  48.0039        338
  48.0225        384
  48.0411        348
  48.0596        376
  48.0782        396
  48.0968        374
  48.1154        369
  48.1339        357
  48.1525        356
  48.1711        355
  48.1897        364
  48.2082        346
  48.2268        356
  48.2454        371
  48.2640        332
  48.2825        365
  48.3011        347
  48.3197        352
  48.3383        388
  48.3569        417
  48.3754        432
  48.3940        442
  48.4126        516
  48.4312        465
  48.4497        410
  48.4683        369
  48.4869        407
  48.5055        432
  48.5240        413
  48.5426        427
  48.5612        421
  48.5798        386
  48.5983        390
  48.6169        357
  48.6355        368
  48.6541        378
  48.6726        330
  48.6912        362
  48.7098        356
  48.7284        351
  48.7470        356
  48.7655        346
  48.7841        379
  48.8027        377
  48.8213        375
  48.8398        320
  48.8584        368
  48.8770        410
  48.8956        382
  48.9141        358
  48.9327        351
  48.9513        367
  48.9699        408
  48.9884        367
  49.0070        391
  49.0256        382
  49.0442        350
  49.0627        401
  49.0813        432
  49.0999        478
  49.1185        490
  49.1371        562
  49.1556        731
  49.1742        851
  49.1928        880
  49.2114        763
  49.2299        638
  49.2485        545
  49.2671        533
  49.2857        629
  49.3042        622
  49.3228        610
  49.3414        576
  49.3600        469
  49.3785        478
  49.3971        415
  49.4157        357
  49.4343        385
  49.4528        390
  49.4714        354
  49.4900        397
  49.5086        347
  49.5272        400
  49.5457        336
  49.5643        368
  49.5829        375
  49.6015        369
  49.6200        376
  49.6386        361
  49.6572        346
  49.6758        368
  49.6943        372
  49.7129        415
  49.7315        353
  49.7501        366
  49.7686        388
  49.7872        357
  49.8058        360
  49.8244        365
  49.8429        390
  49.8615        329
  49.8801        340
  49.8987        384
  49.9173        392
  49.9358        344
  49.9544        413
  49.9730        355
  49.9916        369
  50.0101        365
  50.0287        332
  50.0473        337
  50.0659        358
  50.0844        331
  50.1030        357
  50.1216        359
  50.1402        322
  50.1587        337
  50.1773        364
  50.1959        367
  50.2145        323
  50.2330        342
  50.2516        329
  50.2702        354
  50.2888        343
  50.3074        374
  50.3259        334
  50.3445        363
  50.3631        371
  50.3817        375
  50.4002        370
  50.4188        359
  50.4374        376
  50.4560        357
  50.4745        380
  50.4931        388
  50.5117        352
  50.5303        355
  50.5488        329
  50.5674        374
  50.5860        368
  50.6046        354
  50.6231        361
  50.6417        352
  50.6603        333
  50.6789        340
  50.6975        367
  50.7160        349
  50.7346        343
  50.7532        365
  50.7718        337
  50.7903        352
  50.8089        361
  50.8275        350
  50.8461        325
  50.8646        293
  50.8832        356
  50.9018        340
  50.9204        354
  50.9389        329
  50.9575        346
  50.9761        357
  50.9947        360
  51.0132        366
  51.0318        354
  51.0504        357
  51.0690        362
  51.0876        314
  51.1061        351
  51.1247        335
  51.1433        372
  51.1619        369
  51.1804        364
  51.1990        361
  51.2176        376
  51.2362        346
  51.2547        342
  51.2733        351
  51.2919        357
  51.3105        341
  51.3290        341
  51.3476        331
  51.3662        358
  51.3848        351
  51.4033        361
  51.4219        315
  51.4405        344
  51.4591        331
  51.4777        361
  51.4962        353
  51.5148        350
  51.5334        354
  51.5520        335
  51.5705        368
  51.5891        349
  51.6077        327
  51.6263        342
  51.6448        332
  51.6634        366
  51.6820        338
  51.7006        365
  51.7191        326
  51.7377        319
  51.7563        322
  51.7749        363
  51.7934        369
  51.8120        367
  51.8306        347
  51.8492        364
  51.8678        367
  51.8863        358
  51.9049        341
  51.9235        347
  51.9421        326
  51.9606        340
  51.9792        367
  51.9978        370
  52.0164        365
  52.0349        330
  52.0535        358
  52.0721        366
  52.0907        402
  52.1092        344
  52.1278        349
  52.1464        376
  52.1650        381
  52.1835        365
  52.2021        359
  52.2207        316
  52.2393        372
  52.2579        357
  52.2764        373
  52.2950        350
  52.3136        345
  52.3322        327
  52.3507        346
  52.3693        387
  52.3879        382
  52.4065        366
  52.4250        350
  52.4436        382
  52.4622        431
  52.4808        382
  52.4993        393
  52.5179        409
  52.5365        431
  52.5551        448
  52.5736        499
  52.5922        642
  52.6108        819
  52.6294        934
  52.6480        905
  52.6665        683
  52.6851        568
  52.7037        530
  52.7223        505
  52.7408        532
  52.7594        608
  52.7780        647
  52.7966        593
  52.8151        530
  52.8337        466
  52.8523        432
  52.8709        404
  52.8894        382
  52.9080        318
  52.9266        380
  52.9452        354
  52.9637        378
  52.9823        356
  53.0009        395
  53.0195        357
  53.0381        403
  53.0566        413
  53.0752        357
  53.0938        417
  53.1124        416
  53.1309        435
  53.1495        500
  53.1681        664
  53.1867        781
  53.2052        905
  53.2238        806
  53.2424        671
  53.2610        507
  53.2795        511
  53.2981        501
  53.3167        541
  53.3353        609
  53.3538        602
  53.3724        538
  53.3910        500
  53.4096        464
  53.4282        412
  53.4467        388
  53.4653        387
  53.4839        373
  53.5025        348
  53.5210        357
  53.5396        357
  53.5582        383
  53.5768        366
  53.5953        345
  53.6139        333
  53.6325        371
  53.6511        349
  53.6696        361
  53.6882        357
  53.7068        356
  53.7254        329
  53.7439        319
  53.7625        348
  53.7811        334
  53.7997        355
  53.8183        313
  53.8368        350
  53.8554        328
  53.8740        332
  53.8926        358
  53.9111        341
  53.9297        342
  53.9483        383
  53.9669        330
  53.9854        314
  54.0040        345
  54.0226        366
  54.0412        359
  54.0597        318
  54.0783        343
  54.0969        356
  54.1155        389
  54.1340        436
  54.1526        464
  54.1712        439
  54.1898        430
  54.2084        417
  54.2269        403
  54.2455        375
  54.2641        383
  54.2827        372
  54.3012        387
  54.3198        379
  54.3384        389
  54.3570        419
  54.3755        369
  54.3941        380
  54.4127        346
  54.4313        374
  54.4498        356
  54.4684        364
  54.4870        347
  54.5056        382
  54.5241        357
  54.5427        333
  54.5613        372
  54.5799        338
  54.5985        370
  54.6170        375
  54.6356        325
  54.6542        370
  54.6728        349
  54.6913        354
  54.7099        385
  54.7285        399
  54.7471        393
  54.7656        384
  54.7842        425
  54.8028        450
  54.8214        491
  54.8399        510
  54.8585        661
  54.8771        858
  54.8957        969
  54.9142        944
  54.9328        791
  54.9514        634
  54.9700        568
  54.9886        506
  55.0071        546
  55.0257        606
  55.0443        715
  55.0629        638
  55.0814        569
  55.1000        513
  55.1186        399
  55.1372        382
  55.1557        436
  55.1743        384
  55.1929        343
  55.2115        352
  55.2300        379
  55.2486        383
  55.2672        345
  55.2858        362
  55.3043        336
  55.3229        386
  55.3415        353
  55.3601        370
  55.3787        292
  55.3972        370
  55.4158        358
  55.4344        340
  55.4530        362
  55.4715        350
  55.4901        309
  55.5087        326
  55.5273        338
  55.5458        342
  55.5644        339
  55.5830        358
  55.6016        332
  55.6201        335
  55.6387        357
  55.6573        369
  55.6759        351
  55.6944        358
  55.7130        356
  55.7316        359
  55.7502        361
  55.7688        317
  55.7873        353
  55.8059        341
  55.8245        323
  55.8431        346
  55.8616        366
  55.8802        331
  55.8988        366
  55.9174        337
  55.9359        385
  55.9545        372
  55.9731        343
  55.9917        355
  56.0102        376
  56.0288        351
  56.0474        344
  56.0660        332
  56.0846        372
  56.1031        374
  56.1217        336
  56.1403        337
  56.1589        368
  56.1774        322
  56.1960        332
  56.2146        318
  56.2332        335
  56.2517        329
  56.2703        371
  56.2889        325
  56.3075        332
  56.3260        353
  56.3446        389
  56.3632        351
  56.3818        332
  56.4003        364
  56.4189        310
  56.4375        337
  56.4561        348
  56.4747        334
  56.4932        348
  56.5118        324
  56.5304        308
  56.5490        310
  56.5675        327
  56.5861        356
  56.6047        336
  56.6233        340
  56.6418        357
  56.6604        353
  56.6790        344
  56.6976        341
  56.7161        366
  56.7347        345
  56.7533        306
  56.7719        337
  56.7904        357
  56.8090        345
  56.8276        333
  56.8462        355
  56.8648        336
  56.8833        354
  56.9019        360
  56.9205        332
  56.9391        336
  56.9576        341
  56.9762        368
  56.9948        369
  57.0134        363
  57.0319        372
  57.0505        370
  57.0691        398
  57.0877        331
  57.1062        318
  57.1248        344
  57.1434        364
  57.1620        362
  57.1805        378
  57.1991        354
  57.2177        319
  57.2363        327
  57.2549        351
  57.2734        366
  57.2920        335
  57.3106        364
  57.3292        329
  57.3477        328
  57.3663        367
  57.3849        352
  57.4035        346
  57.4220        359
  57.4406        352
  57.4592        319
  57.4778        340
  57.4963        336
  57.5149        332
  57.5335        342
  57.5521        309
  57.5706        354
  57.5892        341
  57.6078        349
  57.6264        333
  57.6450        355
  57.6635        344
  57.6821        364
  57.7007        381
  57.7193        350
  57.7378        325
  57.7564        347
  57.7750        356
  57.7936        354
  57.8121        371
  57.8307        354
  57.8493        347
  57.8679        374
  57.8864        341
  57.9050        375
  57.9236        369
  57.9422        380
  57.9607        339
  57.9793        379
  57.9979        360
  58.0165        345
  58.0351        347
  58.0536        333
  58.0722        350
  58.0908        383
  58.1094        332
  58.1279        325
  58.1465        379
  58.1651        339
  58.1837        392
  58.2022        367
  58.2208        357
  58.2394        384
  58.2580        401
  58.2765        398
  58.2951        366
  58.3137        378
  58.3323        431
  58.3508        414
  58.3694        375
  58.3880        422
  58.4066        439
  58.4252        396
  58.4437        384
  58.4623        405
  58.4809        473
  58.4995        471
  58.5180        511
  58.5366        525
  58.5552        676
  58.5738        793
  58.5923       1174
  58.6109       1595
  58.6295       2098
  58.6481       2187
  58.6666       1981
  58.6852       1406
  58.7038       1077
  58.7224        882
  58.7409        882
  58.7595        996
  58.7781       1149
  58.7967       1300
  58.8153       1228
  58.8338       1043
  58.8524        806
  58.8710        642
  58.8896        542
  58.9081        514
  58.9267        423
  58.9453        440
  58.9639        410
  58.9824        404
  59.0010        371
  59.0196        386
  59.0382        374
  59.0567        427
  59.0753        378
  59.0939        406
  59.1125        359
  59.1310        368
  59.1496        349
  59.1682        350
  59.1868        375
  59.2054        335
  59.2239        380
  59.2425        338
  59.2611        367
  59.2797        394
  59.2982        361
  59.3168        372
  59.3354        343
  59.3540        388
  59.3725        357
  59.3911        342
  59.4097        333
  59.4283        338
  59.4468        361
  59.4654        339
  59.4840        361
  59.5026        359
  59.5211        364
  59.5397        366
  59.5583        310
  59.5769        359
  59.5955        341
  59.6140        339
  59.6326        336
  59.6512        375
  59.6698        329
  59.6883        362
  59.7069        364
  59.7255        398
  59.7441        342
  59.7626        358
  59.7812        379
  59.7998        328
  59.8184        343
  59.8369        357
  59.8555        382
  59.8741        368
  59.8927        379
  59.9112        365
  59.9298        350
  59.9484        377
  59.9670        383
