   5.0000       2065
   5.0186       2024
   5.0372       1918
   5.0557       2005
   5.0743       1832
   5.0929       1844
   5.1115       1810
   5.1300       1794
   5.1486       1872
   5.1672       1883
   5.1858       1865
   5.2043       1859
   5.2229       1799
   5.2415       1774
   5.2601       1738
   5.2786       1725
   5.2972       1734
   5.3158       1755
   5.3344       1790
   5.3529       1714
   5.3715       1705
   5.3901       1693
   5.4087       1743
   5.4273       1639
   5.4458       1739
   5.4644       1642
   5.4830       1667
   5.5016       1627
   5.5201       1701
   5.5387       1644
   5.5573       1592
   5.5759       1590
   5.5944       1609
   5.6130       1593
   5.6316       1575
   5.6502       1552
   5.6687       1561
   5.6873       1580
   5.7059       1560
   5.7245       1571
   5.7430       1545
   5.7616       1531
   5.7802       1466
   5.7988       1448
   5.8174       1486
   5.8359       1554
   5.8545       1431
   5.8731       1485
   5.8917       1509
   5.9102       1412
   5.9288       1483
   5.9474       1466
   5.9660       1440
   5.9845       1481
   6.0031       1505
   6.0217       1456
   6.0403       1478
   6.0588       1414
   6.0774       1403
   6.0960       1367
   6.1146       1453
   6.1331       1366
   6.1517       1404
   6.1703       1392
   6.1889       1406
   6.2075       1400
   6.2260       1378
   6.2446       1344
   6.2632       1319
   6.2818       1287
   6.3003       1362
   6.3189       1314
   6.3375       1388
   6.3561       1304
   6.3746       1305
   6.3932       1334
   6.4118       1371
   6.4304       1297
   6.4489       1252
   6.4675       1350
   6.4861       1299
   6.5047       1304
   6.5232       1277
   6.5418       1273
   6.5604       1268
   6.5790       1214
   6.5976       1247
   6.6161       1289
   6.6347       1292
   6.6533       1224
   6.6719       1301
   6.6904       1231
   6.7090       1208
   6.7276       1242
   6.7462       1208
   6.7647       1231
   6.7833       1201
   6.8019       1230
   6.8205       1175
   6.8390       1169
   6.8576       1243
   6.8762       1109
   6.8948       1195
   6.9133       1153
   6.9319       1193
   6.9505       1159
   6.9691       1173
   6.9877       1203
   7.0062       1155
   7.0248       1198
   7.0434       1150
   7.0620       1148
   7.0805       1155
   7.0991       1187
   7.1177       1098
   7.1363       1136
   7.1548       1118
   7.1734       1194
   7.1920       1147
   7.2106       1146
   7.2291       1136
   7.2477       1119
   7.2663       1148
   7.2849       1144
   7.3034       1103
   7.3220       1100
   7.3406       1129
   7.3592       1133
   7.3778       1126
   7.3963       1142
   7.4149       1115
   7.4335       1067
   7.4521       1173
   7.4706       1082
   7.4892       1127
   7.5078       1129
   7.5264       1139
   7.5449       1141
   7.5635       1224
   7.5821       1150
   7.6007       1140
   7.6192       1144
   7.6378       1167
   7.6564       1098
   7.6750       1135
   7.6935       1114
   7.7121       1112
   7.7307       1088
   7.7493       1127
   7.7679       1138
   7.7864       1073
   7.8050       1076
   7.8236       1111
   7.8422       1177
   7.8607       1112
   7.8793       1145
   7.8979       1172
   7.9165       1136
   7.9350       1108
   7.9536       1175
   7.9722       1120
   7.9908       1169
   8.0093       1041
   8.0279       1119
   8.0465       1180
   8.0651       1155
   8.0836       1181
   8.1022       1157
   8.1208       1151
   8.1394       1161
   8.1580       1147
   8.1765       1114
   8.1951       1149
   8.2137       1110
   8.2323       1144
   8.2508       1175
   8.2694       1206
   8.2880       1168
   8.3066       1156
   8.3251       1135
   8.3437       1135
   8.3623       1138
   8.3809       1097
   8.3994       1126
   8.4180       1144
   8.4366       1117
   8.4552       1161
   8.4737       1131
   8.4923       1166
   8.5109       1146
   8.5295       1164
   8.5481       1087
   8.5666       1172
   8.5852       1137
   8.6038       1099
   8.6224       1151
   8.6409       1056
   8.6595       1134
   8.6781       1159
   8.6967       1185
   8.7152       1201
   8.7338       1163
   8.7524       1186
   8.7710       1169
   8.7895       1139
   8.8081       1173
   8.8267       1128
   8.8453       1100
   8.8638       1137
   8.8824       1140
   8.9010       1214
   8.9196       1176
   8.9382       1153
   8.9567       1146
   8.9753       1131
   8.9939       1121
   9.0125       1123
   9.0310       1100
   9.0496       1103
   9.0682       1241
   9.0868       1192
   9.1053       1093
   9.1239       1125
   9.1425       1149
   9.1611       1124
   9.1796       1148
   9.1982       1174
   9.2168       1101
   9.2354       1139
   9.2539       1129
   9.2725       1181
   9.2911       1070
   9.3097       1104
   9.3283       1126
   9.3468       1041
   9.3654       1169
   9.3840       1141
   9.4026       1110
   9.4211       1141
   9.4397       1146
   9.4583       1143
   9.4769       1141
   9.4954       1192
   9.5140       1142
   9.5326       1137
   9.5512       1133
   9.5697       1178
   9.5883       1227
   9.6069       1152
   9.6255       1101
   9.6441       1146
   9.6626       1131
   9.6812       1079
   9.6998       1136
   9.7184       1154
   9.7369       1127
   9.7555       1157
   9.7741       1090
   9.7927       1171
   9.8112       1147
   9.8298       1158
   9.8484       1134
   9.8670       1135
   9.8855       1118
   9.9041       1180
   9.9227       1132
   9.9413       1172
   9.9598       1162
   9.9784       1139
   9.9970       1134
  10.0156       1080
  10.0342       1183
  10.0527       1120
  10.0713       1117
  10.0899       1110
  10.1085       1224
  10.1270       1127
  10.1456       1095
  10.1642       1111
  10.1828       1156
  10.2013       1111
  10.2199       1141
  10.2385       1069
  10.2571       1106
  10.2756       1090
  10.2942       1147
  10.3128       1042
  10.3314       1088
  10.3499       1148
  10.3685       1054
  10.3871       1142
  10.4057       1085
  10.4243       1086
  10.4428       1102
  10.4614       1103
  10.4800       1065
  10.4986       1043
  10.5171       1116
  10.5357       1103
  10.5543       1115
  10.5729       1063
  10.5914       1050
  10.6100       1130
  10.6286       1057
  10.6472       1085
  10.6657       1070
  10.6843       1068
  10.7029       1071
  10.7215       1121
  10.7400       1130
  10.7586       1091
  10.7772       1060
  10.7958       1085
  10.8144       1047
  10.8329       1101
  10.8515       1017
  10.8701       1110
  10.8887       1071
  10.9072       1140
  10.9258       1087
  10.9444       1004
  10.9630       1033
  10.9815       1095
  11.0001       1049
  11.0187       1059
  11.0373       1100
  11.0558       1056
  11.0744       1096
  11.0930       1080
  11.1116       1062
  11.1301       1023
  11.1487       1033
  11.1673       1029
  11.1859       1036
  11.2045       1039
  11.2230       1042
  11.2416       1073
  11.2602       1045
  11.2788       1070
  11.2973       1037
  11.3159       1102
  11.3345       1023
  11.3531       1064
  11.3716       1026
  11.3902       1013
  11.4088       1024
  11.4274       1098
  11.4459        989
  11.4645       1004
  11.4831        968
  11.5017       1022
  11.5202       1094
  11.5388       1040
  11.5574       1059
  11.5760       1081
  11.5946       1037
  11.6131       1005
  11.6317       1016
  11.6503       1052
  11.6689       1032
  11.6874        994
  11.7060       1061
  11.7246       1017
  11.7432       1002
  11.7617       1026
  11.7803       1047
  11.7989       1085
  11.8175       1104
  11.8360       1177
  11.8546       1291
  11.8732       1308
  11.8918       1478
  11.9103       1677
  11.9289       1818
  11.9475       1806
  11.9661       1638
  11.9847       1341
  12.0032       1183
  12.0218       1067
  12.0404        963
  12.0590       1008
  12.0775        938
  12.0961        951
  12.1147        986
  12.1333        982
  12.1518        956
  12.1704        907
  12.1890        981
  12.2076        961
  12.2261        928
  12.2447        962
  12.2633        955
  12.2819        920
  12.3004        878
  12.3190        942
  12.3376        994
  12.3562        912
  12.3748        983
  12.3933        889
  12.4119        963
  12.4305        926
  12.4491        971
  12.4676        944
  12.4862        904
  12.5048        877
  12.5234        950
  12.5419       1008
  12.5605        924
  12.5791        916
  12.5977        906
  12.6162        931
  12.6348        959
  12.6534        900
  12.6720        910
  12.6905        909
  12.7091        947
  12.7277        949
  12.7463        895
  12.7649        931
  12.7834        840
  12.8020        910
  12.8206        895
  12.8392        908
  12.8577        837
  12.8763        898
  12.8949        936
  12.9135        899
  12.9320        868
  12.9506        885
  12.9692        894
  12.9878        884
  13.0063        920
  13.0249        848
  13.0435        812
  13.0621        876
  13.0806        872
  13.0992        868
  13.1178        876
  13.1364        893
  13.1550        836
  13.1735        871
  13.1921        830
  13.2107        859
  13.2293        798
  13.2478        889
  13.2664        832
  13.2850        858
  13.3036        860
  13.3221        848
  13.3407        825
  13.3593        882
  13.3779        863
  13.3964        800
  13.4150        796
  13.4336        895
  13.4522        853
  13.4707        845
  13.4893        843
  13.5079        872
  13.5265        896
  13.5451        854
  13.5636        856
  13.5822        831
  13.6008        832
  13.6194        874
  13.6379        847
  13.6565        854
  13.6751        879
  13.6937        841
  13.7122        850
  13.7308        842
  13.7494        792
  13.7680        867
  13.7865        850
  13.8051        848
  13.8237        842
  13.8423        808
  13.8608        785
  13.8794        773
  13.8980        871
  13.9166        807
  13.9352        810
  13.9537        843
  13.9723        815
  13.9909        798
  14.0095        771
  14.0280        820
  14.0466        816
  14.0652        801
  14.0838        751
  14.1023        780
  14.1209        824
  14.1395        743
  14.1581        809
  14.1766        768
  14.1952        779
  14.2138        763
  14.2324        757
  14.2509        813
  14.2695        783
  14.2881        785
  14.3067        793
  14.3253        827
  14.3438        762
  14.3624        742
  14.3810        783
  14.3996        744
  14.4181        746
  14.4367        776
  14.4553        781
  14.4739        752
  14.4924        770
  14.5110        743
  14.5296        784
  14.5482        803
  14.5667        769
  14.5853        750
  14.6039        791
  14.6225        804
  14.6410        731
  14.6596        773
  14.6782        788
  14.6968        749
  14.7154        748
  14.7339        752
  14.7525        732
  14.7711        788
  14.7897        781
  14.8082        712
  14.8268        738
  14.8454        762
  14.8640        766
  14.8825        733
  14.9011        770
  14.9197        747
  14.9383        768
  14.9568        777
  14.9754        738
  14.9940        766
  15.0126        720
  15.0311        754
  15.0497        789
  15.0683        767
  15.0869        704
  15.1055        722
  15.1240        752
  15.1426        765
  15.1612        753
  15.1798        718
  15.1983        727
  15.2169        733
  15.2355        726
  15.2541        723
  15.2726        758
  15.2912        738
  15.3098        740
  15.3284        742
  15.3469        756
  15.3655        784
  15.3841        735
  15.4027        755
  15.4212        762
  15.4398        758
  15.4584        729
  15.4770        743
  15.4956        709
  15.5141        727
  15.5327        802
  15.5513        775
  15.5699        766
  15.5884        728
  15.6070        743
  15.6256        724
  15.6442        723
  15.6627        724
  15.6813        740
  15.6999        757
  15.7185        687
  15.7370        728
  15.7556        758
  15.7742        746
  15.7928        762
  15.8113        711
  15.8299        708
  15.8485        740
  15.8671        713
  15.8857        744
  15.9042        724
  15.9228        767
  15.9414        753
  15.9600        706
  15.9785        770
  15.9971        711
  16.0157        731
  16.0343        702
  16.0528        727
  16.0714        717
  16.0900        719
  16.1086        795
  16.1271        764
  16.1457        701
  16.1643        761
  16.1829        736
  16.2014        791
  16.2200        729
  16.2386        709
  16.2572        752
  16.2758        757
  16.2943        755
  16.3129        805
  16.3315        791
  16.3501        741
  16.3686        727
  16.3872        757
  16.4058        734
  16.4244        759
  16.4429        740
  16.4615        687
  16.4801        715
  16.4987        721
  16.5172        679
  16.5358        721
  16.5544        725
  16.5730        695
  16.5915        735
  16.6101        771
  16.6287        748
  16.6473        722
  16.6659        718
  16.6844        712
  16.7030        714
  16.7216        739
  16.7402        738
  16.7587        733
  16.7773        732
  16.7959        714
  16.8145        730
  16.8330        779
  16.8516        704
  16.8702        748
  16.8888        720
  16.9073        745
  16.9259        724
  16.9445        704
  16.9631        718
  16.9816        720
  17.0002        707
  17.0188        722
  17.0374        735
  17.0560        725
  17.0745        731
  17.0931        742
  17.1117        658
  17.1303        688
  17.1488        779
  17.1674        724
  17.1860        718
  17.2046        765
  17.2231        704
  17.2417        738
  17.2603        708
  17.2789        726
  17.2974        715
  17.3160        751
  17.3346        730
  17.3532        697
  17.3717        717
  17.3903        711
  17.4089        673
  17.4275        699
  17.4461        687
  17.4646        698
  17.4832        759
  17.5018        754
  17.5204        715
  17.5389        686
  17.5575        697
  17.5761        739
  17.5947        715
  17.6132        723
  17.6318        696
  17.6504        727
  17.6690        744
  17.6875        717
  17.7061        677
  17.7247        715
  17.7433        736
  17.7618        734
  17.7804        708
  17.7990        715
  17.8176        768
  17.8362        662
  17.8547        734
  17.8733        806
  17.8919        775
  17.9105        736
  17.9290        719
  17.9476        742
  17.9662        679
  17.9848        733
  18.0033        781
  18.0219        703
  18.0405        716
  18.0591        737
  18.0776        707
  18.0962        734
  18.1148        737
  18.1334        666
  18.1519        818
  18.1705        705
  18.1891        726
  18.2077        750
  18.2263        735
  18.2448        683
  18.2634        684
  18.2820        731
  18.3006        723
  18.3191        725
  18.3377        759
  18.3563        746
  18.3749        741
  18.3934        736
  18.4120        725
  18.4306        718
  18.4492        749
  18.4677        748
  18.4863        730
  18.5049        706
  18.5235        760
  18.5420        756
  18.5606        714
  18.5792        685
  18.5978        746
  18.6164        733
  18.6349        756
  18.6535        738
  18.6721        727
  18.6907        752
  18.7092        739
  18.7278        730
  18.7464        766
  18.7650        746
  18.7835        737
  18.8021        723
  18.8207        736
  18.8393        719
  18.8578        754
  18.8764        744
  18.8950        742
  18.9136        707
  18.9322        729
  18.9507        719
  18.9693        705
  18.9879        767
  19.0065        715
  19.0250        767
  19.0436        679
  19.0622        738
  19.0808        702
  19.0993        741
  19.1179        779
  19.1365        687
  19.1551        685
  19.1736        733
  19.1922        712
  19.2108        719
  19.2294        737
  19.2479        768
  19.2665        761
  19.2851        692
  19.3037        748
  19.3223        699
  19.3408        698
  19.3594        735
  19.3780        761
  19.3966        779
  19.4151        721
  19.4337        754
  19.4523        687
  19.4709        789
  19.4894        752
  19.5080        759
  19.5266        725
  19.5452        767
  19.5637        771
  19.5823        708
  19.6009        710
  19.6195        707
  19.6380        759
  19.6566        740
  19.6752        724
  19.6938        712
  19.7124        703
  19.7309        724
  19.7495        754
  19.7681        730
  19.7867        739
  19.8052        777
  19.8238        730
  19.8424        747
  19.8610        734
  19.8795        746
  19.8981        723
  19.9167        728
  19.9353        786
  19.9538        782
  19.9724        736
  19.9910        744
  20.0096        765
  20.0281        757
  20.0467        766
  20.0653        769
  20.0839        757
  20.1025        751
  20.1210        774
  20.1396        732
  20.1582        705
  20.1768        771
  20.1953        750
  20.2139        732
  20.2325        748
  20.2511        737
  20.2696        740
  20.2882        739
  20.3068        713
  20.3254        765
  20.3439        744
  20.3625        701
  20.3811        791
  20.3997        756
  20.4182        777
  20.4368        770
  20.4554        739
  20.4740        762
  20.4926        726
  20.5111        707
  20.5297        729
  20.5483        718
  20.5669        726
  20.5854        700
  20.6040        760
  20.6226        786
  20.6412        773
  20.6597        784
  20.6783        770
  20.6969        743
  20.7155        761
  20.7340        729
  20.7526        739
  20.7712        752
  20.7898        781
  20.8083        729
  20.8269        747
  20.8455        781
  20.8641        747
  20.8827        784
  20.9012        742
  20.9198        713
  20.9384        735
  20.9570        844
  20.9755        760
  20.9941        757
  21.0127        733
  21.0313        747
  21.0498        731
  21.0684        735
  21.0870        803
  21.1056        721
  21.1241        745
  21.1427        753
  21.1613        766
  21.1799        700
  21.1984        733
  21.2170        774
  21.2356        738
  21.2542        746
  21.2728        745
  21.2913        747
  21.3099        777
  21.3285        816
  21.3471        747
  21.3656        755
  21.3842        752
  21.4028        791
  21.4214        763
  21.4399        746
  21.4585        743
  21.4771        762
  21.4957        749
  21.5142        722
  21.5328        753
  21.5514        800
  21.5700        786
  21.5885        714
  21.6071        780
  21.6257        764
  21.6443        784
  21.6629        690
  21.6814        729
  21.7000        735
  21.7186        741
  21.7372        710
  21.7557        764
  21.7743        719
  21.7929        757
  21.8115        798
  21.8300        807
  21.8486        796
  21.8672        780
  21.8858        772
  21.9043        770
  21.9229        765
  21.9415        736
  21.9601        788
  21.9786        747
  21.9972        769
  22.0158        769
  22.0344        807
  22.0530        807
  22.0715        851
  22.0901        790
  22.1087        792
  22.1273        799
  22.1458        810
  22.1644        747
  22.1830        732
  22.2016        815
  22.2201        763
  22.2387        738
  22.2573        759
  22.2759        768
  22.2944        809
  22.3130        789
  22.3316        767
  22.3502        759
  22.3687        666
  22.3873        762
  22.4059        713
  22.4245        714
  22.4431        741
  22.4616        766
  22.4802        772
  22.4988        774
  22.5174        840
  22.5359        793
  22.5545        791
  22.5731        839
  22.5917        784
  22.6102        787
  22.6288        752
  22.6474        794
  22.6660        754
  22.6845        812
  22.7031        776
  22.7217        807
  22.7403        828
  22.7588        874
  22.7774        962
  22.7960       1025
  22.8146       1380
  22.8332       1894
  22.8517       2585
  22.8703       3089
  22.8889       2730
  22.9075       2267
  22.9260       2072
  22.9446       1631
  22.9632       1229
  22.9818        956
  23.0003        876
  23.0189        857
  23.0375        828
  23.0561        755
  23.0746        822
  23.0932        782
  23.1118        783
  23.1304        771
  23.1489        832
  23.1675        783
  23.1861        821
  23.2047        753
  23.2233        749
  23.2418        750
  23.2604        789
  23.2790        830
  23.2976        734
  23.3161        755
  23.3347        790
  23.3533        794
  23.3719        749
  23.3904        761
  23.4090        746
  23.4276        752
  23.4462        742
  23.4647        769
  23.4833        782
  23.5019        781
  23.5205        793
  23.5390        814
  23.5576        780
  23.5762        808
  23.5948        816
  23.6134        752
  23.6319        806
  23.6505        793
  23.6691        735
  23.6877        762
  23.7062        774
  23.7248        727
  23.7434        734
  23.7620        734
  23.7805        815
  23.7991        777
  23.8177        732
  23.8363        819
  23.8548        768
  23.8734        749
  23.8920        830
  23.9106        773
  23.9291        874
  23.9477        970
  23.9663       1229
  23.9849       1478
  24.0035       1824
  24.0220       2007
  24.0406       1787
  24.0592       1517
  24.0778       1366
  24.0963       1233
  24.1149        917
  24.1335        914
  24.1521        820
  24.1706        741
  24.1892        803
  24.2078        758
  24.2264        711
  24.2449        775
  24.2635        737
  24.2821        795
  24.3007        782
  24.3192        729
  24.3378        760
  24.3564        743
  24.3750        742
  24.3936        732
  24.4121        719
  24.4307        728
  24.4493        714
  24.4679        715
  24.4864        746
  24.5050        715
  24.5236        741
  24.5422        785
  24.5607        778
  24.5793        737
  24.5979        709
  24.6165        707
  24.6350        759
  24.6536        769
  24.6722        728
  24.6908        810
  24.7093        762
  24.7279        777
  24.7465        739
  24.7651        708
  24.7837        723
  24.8022        721
  24.8208        774
  24.8394        740
  24.8580        723
  24.8765        719
  24.8951        704
  24.9137        777
  24.9323        765
  24.9508        696
  24.9694        712
  24.9880        735
  25.0066        751
  25.0251        682
  25.0437        679
  25.0623        770
  25.0809        777
  25.0994        761
  25.1180        671
  25.1366        747
  25.1552        767
  25.1738        812
  25.1923        746
  25.2109        717
  25.2295        783
  25.2481        709
  25.2666        725
  25.2852        758
  25.3038        719
  25.3224        743
  25.3409        736
  25.3595        762
  25.3781        703
  25.3967        715
  25.4152        704
  25.4338        739
  25.4524        746
  25.4710        744
  25.4895        710
  25.5081        729
  25.5267        725
  25.5453        732
  25.5639        699
  25.5824        737
  25.6010        709
  25.6196        725
  25.6382        707
  25.6567        746
  25.6753        763
  25.6939        758
  25.7125        751
  25.7310        757
  25.7496        793
  25.7682        752
  25.7868        716
  25.8053        707
  25.8239        783
  25.8425        837
  25.8611        862
  25.8796        840
  25.8982        811
  25.9168        718
  25.9354        820
  25.9540        737
  25.9725        796
  25.9911        728
  26.0097        685
  26.0283        711
  26.0468        660
  26.0654        739
  26.0840        691
  26.1026        718
  26.1211        720
  26.1397        637
  26.1583        701
  26.1769        686
  26.1954        691
  26.2140        713
  26.2326        730
  26.2512        717
  26.2697        740
  26.2883        743
  26.3069        659
  26.3255        711
  26.3441        729
  26.3626        727
  26.3812        691
  26.3998        706
  26.4184        696
  26.4369        700
  26.4555        678
  26.4741        647
  26.4927        652
  26.5112        705
  26.5298        709
  26.5484        701
  26.5670        729
  26.5855        698
  26.6041        655
  26.6227        662
  26.6413        680
  26.6598        645
  26.6784        649
  26.6970        646
  26.7156        647
  26.7342        661
  26.7527        680
  26.7713        685
  26.7899        709
  26.8085        661
  26.8270        693
  26.8456        679
  26.8642        670
  26.8828        645
  26.9013        699
  26.9199        654
  26.9385        689
  26.9571        627
  26.9756        673
  26.9942        700
  27.0128        692
  27.0314        666
  27.0499        686
  27.0685        668
  27.0871        683
  27.1057        656
  27.1243        683
  27.1428        703
  27.1614        680
  27.1800        654
  27.1986        704
  27.2171        673
  27.2357        627
  27.2543        652
  27.2729        635
  27.2914        684
  27.3100        635
  27.3286        666
  27.3472        641
  27.3657        663
  27.3843        671
  27.4029        633
  27.4215        717
  27.4400        688
  27.4586        630
  27.4772        650
  27.4958        654
  27.5144        674
  27.5329        715
  27.5515        636
  27.5701        659
  27.5887        677
  27.6072        649
  27.6258        634
  27.6444        641
  27.6630        671
  27.6815        651
  27.7001        675
  27.7187        662
  27.7373        664
  27.7558        618
  27.7744        678
  27.7930        628
  27.8116        618
  27.8301        627
  27.8487        687
  27.8673        692
  27.8859        663
  27.9045        652
  27.9230        694
  27.9416        654
  27.9602        661
  27.9788        728
  27.9973        643
  28.0159        678
  28.0345        678
  28.0531        721
  28.0716        735
  28.0902        732
  28.1088        667
  28.1274        708
  28.1459        672
  28.1645        699
  28.1831        693
  28.2017        643
  28.2203        620
  28.2388        620
  28.2574        597
  28.2760        674
  28.2946        656
  28.3131        611
  28.3317        650
  28.3503        638
  28.3689        591
  28.3874        648
  28.4060        655
  28.4246        622
  28.4432        624
  28.4617        666
  28.4803        635
  28.4989        653
  28.5175        637
  28.5360        673
  28.5546        649
  28.5732        620
  28.5918        649
  28.6104        669
  28.6289        655
  28.6475        629
  28.6661        584
  28.6847        605
  28.7032        662
  28.7218        680
  28.7404        648
  28.7590        641
  28.7775        605
  28.7961        643
  28.8147        661
  28.8333        653
  28.8518        618
  28.8704        609
  28.8890        582
  28.9076        601
  28.9261        616
  28.9447        620
  28.9633        609
  28.9819        642
  29.0005        581
  29.0190        642
  29.0376        615
  29.0562        588
  29.0748        605
  29.0933        615
  29.1119        648
  29.1305        626
  29.1491        639
  29.1676        612
  29.1862        624
  29.2048        642
  29.2234        648
  29.2419        677
  29.2605        624
  29.2791        622
  29.2977        626
  29.3162        651
  29.3348        648
  29.3534        652
  29.3720        618
  29.3906        616
  29.4091        569
  29.4277        630
  29.4463        652
  29.4649        596
  29.4834        621
  29.5020        576
  29.5206        665
  29.5392        600
  29.5577        604
  29.5763        593
  29.5949        668
  29.6135        619
  29.6320        565
  29.6506        636
  29.6692        641
  29.6878        592
  29.7063        590
  29.7249        664
  29.7435        598
  29.7621        596
  29.7807        625
  29.7992        623
  29.8178        660
  29.8364        632
  29.8550        636
  29.8735        653
  29.8921        666
  29.9107        641
  29.9293        641
  29.9478        640
  29.9664        607
  29.9850        575
  30.0036        588
  30.0221        570
  30.0407        588
  30.0593        627
  30.0779        564
  30.0964        609
  30.1150        591
  30.1336        560
  30.1522        601
  30.1708        544
  30.1893        603
  30.2079        576
  30.2265        594
  30.2451        572
  30.2636        590
  30.2822        590
  30.3008        558
  30.3194        572
  30.3379        597
  30.3565        577
  30.3751        555
  30.3937        590
  30.4122        580
  30.4308        548
  30.4494        572
  30.4680        560
  30.4865        601
  30.5051        567
  30.5237        570
  30.5423        571
  30.5609        610
  30.5794        587
  30.5980        559
  30.6166        550
  30.6352        593
  30.6537        565
  30.6723        587
  30.6909        524
  30.7095        553
  30.7280        544
  30.7466        597
  30.7652        562
  30.7838        577
  30.8023        595
  30.8209        609
  30.8395        570
  30.8581        571
  30.8766        596
  30.8952        565
  30.9138        585
  30.9324        546
  30.9510        577
  30.9695        524
  30.9881        533
  31.0067        568
  31.0253        578
  31.0438        551
  31.0624        569
  31.0810        558
  31.0996        573
  31.1181        578
  31.1367        540
  31.1553        554
  31.1739        519
  31.1924        569
  31.2110        578
  31.2296        544
  31.2482        542
  31.2667        564
  31.2853        530
  31.3039        568
  31.3225        551
  31.3411        557
  31.3596        575
  31.3782        572
  31.3968        572
  31.4154        581
  31.4339        572
  31.4525        537
  31.4711        570
  31.4897        563
  31.5082        581
  31.5268        592
  31.5454        609
  31.5640        580
  31.5825        570
  31.6011        535
  31.6197        552
  31.6383        522
  31.6568        582
  31.6754        600
  31.6940        510
  31.7126        538
  31.7312        551
  31.7497        559
  31.7683        553
  31.7869        541
  31.8055        541
  31.8240        521
  31.8426        505
  31.8612        534
  31.8798        519
  31.8983        559
  31.9169        554
  31.9355        570
  31.9541        515
  31.9726        565
  31.9912        560
  32.0098        579
  32.0284        586
  32.0469        537
  32.0655        541
  32.0841        520
  32.1027        566
  32.1213        573
  32.1398        600
  32.1584        567
  32.1770        555
  32.1956        551
  32.2141        515
  32.2327        552
  32.2513        632
  32.2699        586
  32.2884        589
  32.3070        622
  32.3256        616
  32.3442        598
  32.3627        620
  32.3813        662
  32.3999        657
  32.4185        637
  32.4370        679
  32.4556        716
  32.4742        846
  32.4928        998
  32.5114       1486
  32.5299       2484
  32.5485       3799
  32.5671       3735
  32.5857       2495
  32.6042       1847
  32.6228       2130
  32.6414       2402
  32.6600       1779
  32.6785       1172
  32.6971        855
  32.7157        712
  32.7343        619
  32.7528        634
  32.7714        611
  32.7900        654
  32.8086        573
  32.8271        608
  32.8457        603
  32.8643        555
  32.8829        558
  32.9015        523
  32.9200        534
  32.9386        539
  32.9572        544
  32.9758        542
  32.9943        604
  33.0129        581
  33.0315        607
  33.0501        583
  33.0686        577
  33.0872        543
  33.1058        601
  33.1244        632
  33.1429        630
  33.1615        638
  33.1801        647
  33.1987        621
  33.2172        719
  33.2358        721
  33.2544        725
  33.2730        827
  33.2916        849
  33.3101       1024
  33.3287       1378
  33.3473       2377
  33.3659       3908
  33.3844       5904
  33.4030       6720
  33.4216       4789
  33.4402       3277
  33.4587       3231
  33.4773       3873
  33.4959       3428
  33.5145       2114
  33.5330       1301
  33.5516        940
  33.5702        874
  33.5888        693
  33.6073        671
  33.6259        661
  33.6445        649
  33.6631        612
  33.6817        587
  33.7002        537
  33.7188        550
  33.7374        541
  33.7560        547
  33.7745        528
  33.7931        509
  33.8117        511
  33.8303        521
  33.8488        488
  33.8674        547
  33.8860        498
  33.9046        501
  33.9231        547
  33.9417        503
  33.9603        527
  33.9789        471
  33.9974        497
  34.0160        495
  34.0346        489
  34.0532        493
  34.0718        496
  34.0903        492
  34.1089        525
  34.1275        517
  34.1461        510
  34.1646        526
  34.1832        472
  34.2018        494
  34.2204        464
  34.2389        519
  34.2575        487
  34.2761        496
  34.2947        463
  34.3132        490
  34.3318        495
  34.3504        481
  34.3690        506
  34.3875        471
  34.4061        476
  34.4247        491
  34.4433        452
  34.4619        478
  34.4804        476
  34.4990        442
  34.5176        436
  34.5362        457
  34.5547        460
  34.5733        477
  34.5919        499
  34.6105        470
  34.6290        466
  34.6476        493
  34.6662        431
  34.6848        457
  34.7033        471
  34.7219        482
  34.7405        502
  34.7591        546
  34.7776        560
  34.7962        599
  34.8148        531
  34.8334        463
  34.8520        489
  34.8705        531
  34.8891        530
  34.9077        506
  34.9263        461
  34.9448        510
  34.9634        433
  34.9820        496
  35.0006        451
  35.0191        442
  35.0377        476
  35.0563        475
  35.0749        456
  35.0934        474
  35.1120        479
  35.1306        528
  35.1492        472
  35.1677        447
  35.1863        466
  35.2049        448
  35.2235        471
  35.2421        452
  35.2606        469
  35.2792        404
  35.2978        506
  35.3164        492
  35.3349        493
  35.3535        451
  35.3721        478
  35.3907        449
  35.4092        496
  35.4278        462
  35.4464        467
  35.4650        470
  35.4835        548
  35.5021        515
  35.5207        503
  35.5393        540
  35.5578        527
  35.5764        588
  35.5950        514
  35.6136        479
  35.6322        485
  35.6507        476
  35.6693        470
  35.6879        458
  35.7065        453
  35.7250        444
  35.7436        442
  35.7622        460
  35.7808        476
  35.7993        433
  35.8179        460
  35.8365        427
  35.8551        452
  35.8736        427
  35.8922        458
  35.9108        434
  35.9294        479
  35.9479        477
  35.9665        440
  35.9851        440
  36.0037        441
  36.0223        465
  36.0408        423
  36.0594        473
  36.0780        425
  36.0966        464
  36.1151        435
  36.1337        457
  36.1523        442
  36.1709        448
  36.1894        493
  36.2080        498
  36.2266        463
  36.2452        467
  36.2637        438
  36.2823        464
  36.3009        506
  36.3195        526
  36.3380        610
  36.3566        614
  36.3752        597
  36.3938        563
  36.4124        489
  36.4309        570
  36.4495        523
  36.4681        566
  36.4867        510
  36.5052        463
  36.5238        506
  36.5424        493
  36.5610        442
  36.5795        501
  36.5981        439
  36.6167        433
  36.6353        439
  36.6538        455
  36.6724        484
  36.6910        475
  36.7096        449
  36.7281        412
  36.7467        422
  36.7653        456
  36.7839        423
  36.8025        459
  36.8210        423
  36.8396        410
  36.8582        420
  36.8768        424
  36.8953        406
  36.9139        424
  36.9325        426
  36.9511        427
  36.9696        431
  36.9882        398
  37.0068        423
  37.0254        430
  37.0439        447
  37.0625        407
  37.0811        410
  37.0997        419
  37.1182        416
  37.1368        393
  37.1554        431
  37.1740        438
  37.1926        428
  37.2111        444
  37.2297        417
  37.2483        461
  37.2669        428
  37.2854        436
  37.3040        446
  37.3226        426
  37.3412        461
  37.3597        468
  37.3783        430
  37.3969        425
  37.4155        412
  37.4340        445
  37.4526        439
  37.4712        381
  37.4898        425
  37.5084        418
  37.5269        428
  37.5455        456
  37.5641        422
  37.5827        426
  37.6012        440
  37.6198        445
  37.6384        414
  37.6570        401
  37.6755        422
  37.6941        472
  37.7127        416
  37.7313        410
  37.7498        401
  37.7684        375
  37.7870        417
  37.8056        427
  37.8241        417
  37.8427        402
  37.8613        407
  37.8799        428
  37.8985        431
  37.9170        449
  37.9356        438
  37.9542        449
  37.9728        407
  37.9913        410
  38.0099        411
  38.0285        400
  38.0471        441
  38.0656        441
  38.0842        406
  38.1028        442
  38.1214        429
  38.1399        444
  38.1585        370
  38.1771        410
  38.1957        430
  38.2142        394
  38.2328        446
  38.2514        448
  38.2700        404
  38.2886        435
  38.3071        418
  38.3257        381
  38.3443        424
  38.3629        445
  38.3814        420
  38.4000        409
  38.4186        419
  38.4372        380
  38.4557        434
  38.4743        409
  38.4929        468
  38.5115        448
  38.5300        454
  38.5486        441
  38.5672        439
  38.5858        421
  38.6043        442
  38.6229        425
  38.6415        458
  38.6601        440
  38.6787        407
  38.6972        442
  38.7158        482
  38.7344        492
  38.7530        506
  38.7715        485
  38.7901        412
  38.8087        468
  38.8273        506
  38.8458        462
  38.8644        466
  38.8830        443
  38.9016        409
  38.9201        412
  38.9387        423
  38.9573        423
  38.9759        428
  38.9944        423
  39.0130        425
  39.0316        430
  39.0502        450
  39.0688        397
  39.0873        415
  39.1059        420
  39.1245        387
  39.1431        409
  39.1616        416
  39.1802        383
  39.1988        413
  39.2174        440
  39.2359        393
  39.2545        370
  39.2731        397
  39.2917        430
  39.3102        423
  39.3288        396
  39.3474        421
  39.3660        420
  39.3845        442
  39.4031        390
  39.4217        421
  39.4403        402
  39.4589        432
  39.4774        416
  39.4960        424
  39.5146        398
  39.5332        403
  39.5517        397
  39.5703        409
  39.5889        376
  39.6075        396
  39.6260        399
  39.6446        395
  39.6632        363
  39.6818        390
  39.7003        415
  39.7189        440
  39.7375        388
  39.7561        408
  39.7746        428
  39.7932        409
  39.8118        429
  39.8304        368
  39.8490        408
  39.8675        397
  39.8861        408
  39.9047        414
  39.9233        403
  39.9418        377
  39.9604        405
  39.9790        398
  39.9976        379
  40.0161        404
  40.0347        399
  40.0533        392
  40.0719        392
  40.0904        386
  40.1090        388
  40.1276        435
  40.1462        428
  40.1647        401
  40.1833        390
  40.2019        415
  40.2205        407
  40.2391        417
  40.2576        405
  40.2762        432
  40.2948        387
  40.3134        396
  40.3319        429
  40.3505        402
  40.3691        411
  40.3877        412
  40.4062        413
  40.4248        384
  40.4434        371
  40.4620        403
  40.4805        425
  40.4991        420
  40.5177        416
  40.5363        418
  40.5548        420
  40.5734        431
  40.5920        458
  40.6106        408
  40.6292        442
  40.6477        437
  40.6663        440
  40.6849        470
  40.7035        470
  40.7220        486
  40.7406        517
  40.7592        552
  40.7778        563
  40.7963        845
  40.8149       1209
  40.8335       1998
  40.8521       2607
  40.8706       2479
  40.8892       1737
  40.9078       1183
  40.9264       1203
  40.9449       1406
  40.9635       1603
  40.9821       1400
  41.0007        970
  41.0193        664
  41.0378        551
  41.0564        505
  41.0750        488
  41.0936        418
  41.1121        421
  41.1307        417
  41.1493        432
  41.1679        444
  41.1864        367
  41.2050        415
  41.2236        434
  41.2422        425
  41.2607        419
  41.2793        416
  41.2979        402
  41.3165        366
  41.3350        406
  41.3536        373
  41.3722        437
  41.3908        403
  41.4094        348
  41.4279        363
  41.4465        371
  41.4651        397
  41.4837        383
  41.5022        382
  41.5208        378
  41.5394        368
  41.5580        417
  41.5765        383
  41.5951        371
  41.6137        413
  41.6323        368
  41.6508        390
  41.6694        383
  41.6880        367
  41.7066        373
  41.7251        401
  41.7437        386
  41.7623        361
  41.7809        405
  41.7995        360
  41.8180        405
  41.8366        398
  41.8552        394
  41.8738        404
  41.8923        411
  41.9109        425
  41.9295        409
  41.9481        384
  41.9666        424
  41.9852        388
  42.0038        359
  42.0224        438
  42.0409        392
  42.0595        381
  42.0781        372
  42.0967        396
  42.1152        380
  42.1338        389
  42.1524        366
  42.1710        386
  42.1896        405
  42.2081        400
  42.2267        402
  42.2453        355
  42.2639        407
  42.2824        383
  42.3010        384
  42.3196        376
  42.3382        401
  42.3567        413
  42.3753        397
  42.3939        389
  42.4125        433
  42.4310        420
  42.4496        421
  42.4682        405
  42.4868        386
  42.5053        394
  42.5239        407
  42.5425        395
  42.5611        406
  42.5797        417
  42.5982        387
  42.6168        412
  42.6354        372
  42.6540        394
  42.6725        404
  42.6911        357
  42.7097        354
  42.7283        385
  42.7468        413
  42.7654        399
  42.7840        382
  42.8026        348
  42.8211        345
  42.8397        364
  42.8583        417
  42.8769        440
  42.8954        396
  42.9140        418
  42.9326        391
  42.9512        391
  42.9698        409
  42.9883        373
  43.0069        376
  43.0255        395
  43.0441        388
  43.0626        380
  43.0812        376
  43.0998        362
  43.1184        375
  43.1369        369
  43.1555        432
  43.1741        391
  43.1927        384
  43.2112        353
  43.2298        426
  43.2484        381
  43.2670        445
  43.2855        412
  43.3041        394
  43.3227        419
  43.3413        481
  43.3599        565
  43.3784        674
  43.3970        688
  43.4156        606
  43.4342        485
  43.4527        475
  43.4713        474
  43.4899        488
  43.5085        528
  43.5270        475
  43.5456        490
  43.5642        423
  43.5828        430
  43.6013        397
  43.6199        413
  43.6385        378
  43.6571        386
  43.6756        382
  43.6942        392
  43.7128        391
  43.7314        376
  43.7500        358
  43.7685        390
  43.7871        411
  43.8057        395
  43.8243        362
  43.8428        380
  43.8614        378
  43.8800        364
  43.8986        336
  43.9171        432
  43.9357        411
  43.9543        354
  43.9729        412
  43.9914        417
  44.0100        405
  44.0286        373
  44.0472        383
  44.0657        380
  44.0843        374
  44.1029        385
  44.1215        371
  44.1401        366
  44.1586        360
  44.1772        388
  44.1958        391
  44.2144        404
  44.2329        391
  44.2515        403
  44.2701        382
  44.2887        367
  44.3072        395
  44.3258        420
  44.3444        380
  44.3630        385
  44.3815        414
  44.4001        378
  44.4187        375
  44.4373        380
  44.4558        400
  44.4744        399
  44.4930        394
  44.5116        380
  44.5302        370
  44.5487        392
  44.5673        375
  44.5859        392
  44.6045        457
  44.6230        437
  44.6416        372
  44.6602        379
  44.6788        394
  44.6973        392
  44.7159        381
  44.7345        396
  44.7531        371
  44.7716        384
  44.7902        359
  44.8088        392
  44.8274        366
  44.8459        373
  44.8645        360
  44.8831        378
  44.9017        366
  44.9203        368
  44.9388        437
  44.9574        399
  44.9760        397
  44.9946        409
  45.0131        365
  45.0317        384
  45.0503        418
  45.0689        357
  45.0874        390
  45.1060        360
  45.1246        380
  45.1432        368
  45.1617        368
  45.1803        398
  45.1989        419
  45.2175        379
  45.2360        393
  45.2546        409
  45.2732        410
  45.2918        393
  45.3104        397
  45.3289        396
  45.3475        394
  45.3661        392
  45.3847        385
  45.4032        345
  45.4218        375
  45.4404        400
  45.4590        352
  45.4775        366
  45.4961        392
  45.5147        384
  45.5333        382
  45.5518        368
  45.5704        381
  45.5890        367
  45.6076        394
  45.6261        402
  45.6447        379
  45.6633        389
  45.6819        368
  45.7005        355
  45.7190        359
  45.7376        396
  45.7562        400
  45.7748        367
  45.7933        379
  45.8119        369
  45.8305        373
  45.8491        380
  45.8676        378
  45.8862        379
  45.9048        397
  45.9234        375
  45.9419        354
  45.9605        396
  45.9791        401
  45.9977        389
  46.0162        407
  46.0348        369
  46.0534        400
  46.0720        396
  46.0906        400
  46.1091        407
  46.1277        398
  46.1463        383
  46.1649        380
  46.1834        397
  46.2020        414
  46.2206        358
  46.2392        414
  46.2577        410
  46.2763        377
  46.2949        460
  46.3135        394
  46.3320        414
  46.3506        387
  46.3692        403
  46.3878        414
  46.4063        421
  46.4249        389
  46.4435        400
  46.4621        407
  46.4807        445
  46.4992        420
  46.5178        452
  46.5364        416
  46.5550        445
  46.5735        458
  46.5921        503
  46.6107        501
  46.6293        596
  46.6478        775
  46.6664       1148
  46.6850       1847
  46.7036       2136
  46.7221       1615
  46.7407       1124
  46.7593        843
  46.7779        847
  46.7965        962
  46.8150       1199
  46.8336       1148
  46.8522        903
  46.8708        655
  46.8893        516
  46.9079        434
  46.9265        449
  46.9451        459
  46.9636        429
  46.9822        368
  47.0008        406
  47.0194        407
  47.0379        407
  47.0565        422
  47.0751        404
  47.0937        384
  47.1122        395
  47.1308        356
  47.1494        363
  47.1680        373
  47.1866        398
  47.2051        376
  47.2237        351
  47.2423        366
  47.2609        394
  47.2794        368
  47.2980        356
  47.3166        418
  47.3352        359
  47.3537        378
  47.3723        370
  47.3909        380
  47.4095        390
  47.4280        353
  47.4466        403
  47.4652        373
  47.4838        386
  47.5023        353
  47.5209        360
  47.5395        364
  47.5581        390
  47.5767        369
  47.5952        380
  47.6138        368
  47.6324        365
  47.6510        390
  47.6695        355
  47.6881        359
  47.7067        363
  47.7253        377
  47.7438        388
  47.7624        379
  47.7810        372
  47.7996        383
  47.8181        360
  47.8367        379
  47.8553        349
  47.8739        327
  47.8924        376
  47.9110        408
  47.9296        392
  47.9482        350
  47.9668        384
  47.9853        389
  48.0039        384
  48.0225        421
  48.0411        359
  48.0596        376
  48.0782        418
  48.0968        366
  48.1154        392
  48.1339        402
  48.1525        399
  48.1711        347
  48.1897        385
  48.2082        397
  48.2268        367
  48.2454        392
  48.2640        313
  48.2825        388
  48.3011        422
  48.3197        372
  48.3383        400
  48.3569        479
  48.3754        526
  48.3940        502
  48.4126        420
  48.4312        412
  48.4497        391
  48.4683        384
  48.4869        455
  48.5055        481
  48.5240        478
  48.5426        386
  48.5612        358
  48.5798        360
  48.5983        339
  48.6169        375
  48.6355        356
  48.6541        350
  48.6726        339
  48.6912        401
  48.7098        382
  48.7284        375
  48.7470        403
  48.7655        349
  48.7841        375
  48.8027        403
  48.8213        358
  48.8398        390
  48.8584        365
  48.8770        385
  48.8956        376
  48.9141        401
  48.9327        385
  48.9513        399
  48.9699        386
  48.9884        385
  49.0070        351
  49.0256        391
  49.0442        391
  49.0627        410
  49.0813        438
  49.0999        475
  49.1185        559
  49.1371        753
  49.1556        944
  49.1742       1001
  49.1928        805
  49.2114        613
  49.2299        521
  49.2485        539
  49.2671        623
  49.2857        671
  49.3042        671
  49.3228        586
  49.3414        468
  49.3600        465
  49.3785        405
  49.3971        388
  49.4157        371
  49.4343        392
  49.4528        349
  49.4714        391
  49.4900        376
  49.5086        389
  49.5272        362
  49.5457        412
  49.5643        376
  49.5829        400
  49.6015        385
  49.6200        407
  49.6386        405
  49.6572        413
  49.6758        402
  49.6943        390
  49.7129        371
  49.7315        385
  49.7501        361
  49.7686        390
  49.7872        390
  49.8058        394
  49.8244        385
  49.8429        338
  49.8615        344
  49.8801        381
  49.8987        346
  49.9173        406
  49.9358        365
  49.9544        353
  49.9730        330
  49.9916        355
  50.0101        373
  50.0287        375
  50.0473        338
  50.0659        391
  50.0844        370
  50.1030        353
  50.1216        366
  50.1402        363
  50.1587        350
  50.1773        423
  50.1959        387
  50.2145        362
  50.2330        375
  50.2516        390
  50.2702        347
  50.2888        357
  50.3074        367
  50.3259        351
  50.3445        339
  50.3631        332
  50.3817        358
  50.4002        391
  50.4188        346
  50.4374        368
  50.4560        360
  50.4745        329
  50.4931        379
  50.5117        364
  50.5303        380
  50.5488        322
  50.5674        354
  50.5860        356
  50.6046        343
  50.6231        339
  50.6417        370
  50.6603        362
  50.6789        312
  50.6975        348
  50.7160        319
  50.7346        373
  50.7532        359
  50.7718        359
  50.7903        341
  50.8089        357
  50.8275        377
  50.8461        336
  50.8646        375
  50.8832        372
  50.9018        364
  50.9204        355
  50.9389        372
  50.9575        340
  50.9761        343
  50.9947        343
  51.0132        340
  51.0318        377
  51.0504        374
  51.0690        371
  51.0876        348
  51.1061        350
  51.1247        393
  51.1433        382
  51.1619        330
  51.1804        382
  51.1990        371
  51.2176        354
  51.2362        367
  51.2547        345
  51.2733        374
  51.2919        343
  51.3105        381
  51.3290        347
  51.3476        368
  51.3662        382
  51.3848        375
  51.4033        359
  51.4219        346
  51.4405        362
  51.4591        336
  51.4777        373
  51.4962        386
  51.5148        377
  51.5334        362
  51.5520        356
  51.5705        357
  51.5891        336
  51.6077        346
  51.6263        359
  51.6448        364
  51.6634        360
  51.6820        380
  51.7006        353
  51.7191        364
  51.7377        379
  51.7563        370
  51.7749        388
  51.7934        393
  51.8120        355
  51.8306        353
  51.8492        364
  51.8678        394
  51.8863        343
  51.9049        379
  51.9235        361
  51.9421        352
  51.9606        335
  51.9792        333
  51.9978        364
  52.0164        378
  52.0349        371
  52.0535        346
  52.0721        336
  52.0907        347
  52.1092        382
  52.1278        370
  52.1464        363
  52.1650        350
  52.1835        353
  52.2021        349
  52.2207        351
  52.2393        349
  52.2579        345
  52.2764        397
  52.2950        379
  52.3136        392
  52.3322        371
  52.3507        387
  52.3693        382
  52.3879        341
  52.4065        384
  52.4250        416
  52.4436        389
  52.4622        403
  52.4808        384
  52.4993        399
  52.5179        422
  52.5365        435
  52.5551        503
  52.5736        674
  52.5922        977
  52.6108        984
  52.6294        801
  52.6480        605
  52.6665        581
  52.6851        501
  52.7037        528
  52.7223        584
  52.7408        672
  52.7594        627
  52.7780        578
  52.7966        467
  52.8151        430
  52.8337        426
  52.8523        397
  52.8709        355
  52.8894        384
  52.9080        385
  52.9266        394
  52.9452        377
  52.9637        378
  52.9823        329
  53.0009        351
  53.0195        365
  53.0381        380
  53.0566        385
  53.0752        428
  53.0938        458
  53.1124        498
  53.1309        562
  53.1495        692
  53.1681        942
  53.1867       1001
  53.2052        799
  53.2238        635
  53.2424        501
  53.2610        454
  53.2795        521
  53.2981        618
  53.3167        677
  53.3353        652
  53.3538        537
  53.3724        467
  53.3910        432
  53.4096        368
  53.4282        442
  53.4467        377
  53.4653        383
  53.4839        370
  53.5025        383
  53.5210        368
  53.5396        347
  53.5582        352
  53.5768        366
  53.5953        343
  53.6139        356
  53.6325        349
  53.6511        341
  53.6696        386
  53.6882        337
  53.7068        349
  53.7254        378
  53.7439        354
  53.7625        325
  53.7811        337
  53.7997        376
  53.8183        353
  53.8368        366
  53.8554        334
  53.8740        364
  53.8926        367
  53.9111        391
  53.9297        349
  53.9483        335
  53.9669        383
  53.9854        365
  54.0040        350
  54.0226        354
  54.0412        367
  54.0597        343
  54.0783        389
  54.0969        392
  54.1155        391
  54.1340        435
  54.1526        484
  54.1712        426
  54.1898        389
  54.2084        385
  54.2269        392
  54.2455        383
  54.2641        395
  54.2827        386
  54.3012        401
  54.3198        429
  54.3384        377
  54.3570        333
  54.3755        369
  54.3941        358
  54.4127        347
  54.4313        359
  54.4498        376
  54.4684        359
  54.4870        373
  54.5056        371
  54.5241        346
  54.5427        342
  54.5613        379
  54.5799        378
  54.5985        376
  54.6170        363
  54.6356        360
  54.6542        402
  54.6728        389
  54.6913        386
  54.7099        370
  54.7285        366
  54.7471        388
  54.7656        417
  54.7842        423
  54.8028        482
  54.8214        540
  54.8399        659
  54.8585        864
  54.8771       1052
  54.8957       1002
  54.9142        755
  54.9328        554
  54.9514        511
  54.9700        457
  54.9886        515
  55.0071        604
  55.0257        687
  55.0443        623
  55.0629        602
  55.0814        494
  55.1000        409
  55.1186        394
  55.1372        398
  55.1557        384
  55.1743        393
  55.1929        385
  55.2115        371
  55.2300        357
  55.2486        352
  55.2672        336
  55.2858        402
  55.3043        332
  55.3229        370
  55.3415        344
  55.3601        340
  55.3787        355
  55.3972        385
  55.4158        362
  55.4344        354
  55.4530        385
  55.4715        360
  55.4901        370
  55.5087        335
  55.5273        374
  55.5458        357
  55.5644        347
  55.5830        323
  55.6016        364
  55.6201        356
  55.6387        335
  55.6573        325
  55.6759        367
  55.6944        348
  55.7130        341
  55.7316        383
  55.7502        344
  55.7688        358
  55.7873        344
  55.8059        356
  55.8245        384
  55.8431        317
  55.8616        373
  55.8802        351
  55.8988        357
  55.9174        329
  55.9359        377
  55.9545        356
  55.9731        363
  55.9917        364
  56.0102        369
  56.0288        369
  56.0474        366
  56.0660        343
  56.0846        364
  56.1031        355
  56.1217        383
  56.1403        357
  56.1589        372
  56.1774        359
  56.1960        347
  56.2146        335
  56.2332        338
  56.2517        347
  56.2703        369
  56.2889        350
  56.3075        354
  56.3260        329
  56.3446        378
  56.3632        359
  56.3818        317
  56.4003        346
  56.4189        362
  56.4375        357
  56.4561        359
  56.4747        346
  56.4932        325
  56.5118        346
  56.5304        376
  56.5490        376
  56.5675        363
  56.5861        370
  56.6047        357
  56.6233        356
  56.6418        375
  56.6604        356
  56.6790        360
  56.6976        335
  56.7161        331
  56.7347        364
  56.7533        368
  56.7719        370
  56.7904        362
  56.8090        359
  56.8276        324
  56.8462        403
  56.8648        343
  56.8833        350
  56.9019        358
  56.9205        379
  56.9391        363
  56.9576        378
  56.9762        343
  56.9948        365
  57.0134        380
  57.0319        369
  57.0505        355
  57.0691        358
  57.0877        357
  57.1062        346
  57.1248        371
  57.1434        398
  57.1620        350
  57.1805        366
  57.1991        342
  57.2177        371
  57.2363        394
  57.2549        311
  57.2734        349
  57.2920        341
  57.3106        371
  57.3292        351
  57.3477        323
  57.3663        361
  57.3849        359
  57.4035        364
  57.4220        369
  57.4406        355
  57.4592        343
  57.4778        393
  57.4963        348
  57.5149        359
  57.5335        352
  57.5521        366
  57.5706        386
  57.5892        324
  57.6078        342
  57.6264        353
  57.6450        369
  57.6635        383
  57.6821        385
  57.7007        352
  57.7193        353
  57.7378        337
  57.7564        354
  57.7750        367
  57.7936        398
  57.8121        375
  57.8307        338
  57.8493        341
  57.8679        342
  57.8864        337
  57.9050        354
  57.9236        368
  57.9422        366
  57.9607        351
  57.9793        331
  57.9979        353
  58.0165        311
  58.0351        372
  58.0536        349
  58.0722        305
  58.0908        355
  58.1094        356
  58.1279        346
  58.1465        390
  58.1651        356
  58.1837        369
  58.2022        378
  58.2208        395
  58.2394        343
  58.2580        390
  58.2765        364
  58.2951        389
  58.3137        372
  58.3323        378
  58.3508        432
  58.3694        406
  58.3880        432
  58.4066        417
  58.4252        437
  58.4437        425
  58.4623        450
  58.4809        468
  58.4995        553
  58.5180        582
  58.5366        647
  58.5552        867
  58.5738       1284
  58.5923       1995
  58.6109       2642
  58.6295       2480
  58.6481       1698
  58.6666       1089
  58.6852        857
  58.7038        741
  58.7224        797
  58.7409       1049
  58.7595       1401
  58.7781       1577
  58.7967       1348
  58.8153        881
  58.8338        718
  58.8524        570
  58.8710        512
  58.8896        486
  58.9081        438
  58.9267        399
  58.9453        409
  58.9639        388
  58.9824        391
  59.0010        428
  59.0196        380
  59.0382        392
  59.0567        370
  59.0753        392
  59.0939        371
  59.1125        395
  59.1310        345
  59.1496        351
  59.1682        413
  59.1868        369
  59.2054        383
  59.2239        372
  59.2425        372
  59.2611        392
  59.2797        396
  59.2982        338
  59.3168        394
  59.3354        342
  59.3540        342
  59.3725        329
  59.3911        361
  59.4097        334
  59.4283        373
  59.4468        337
  59.4654        366
  59.4840        339
  59.5026        386
  59.5211        396
  59.5397        333
  59.5583        332
  59.5769        388
  59.5955        372
  59.6140        374
  59.6326        375
  59.6512        331
  59.6698        362
  59.6883        393
  59.7069        370
  59.7255        372
  59.7441        329
  59.7626        374
  59.7812        347
  59.7998        380
  59.8184        396
  59.8369        345
  59.8555        352
  59.8741        333
  59.8927        352
  59.9112        396
  59.9298        387
  59.9484        411
  59.9670        400
