
   5.0000       2197
   5.0186       2053
   5.0372       1943
   5.0557       1881
   5.0743       1897
   5.0929       1921
   5.1115       1870
   5.1300       1850
   5.1486       1758
   5.1672       1827
   5.1858       1822
   5.2043       1860
   5.2229       1828
   5.2415       1774
   5.2601       1738
   5.2786       1786
   5.2972       1752
   5.3158       1689
   5.3344       1723
   5.3529       1783
   5.3715       1659
   5.3901       1698
   5.4087       1637
   5.4273       1690
   5.4458       1697
   5.4644       1696
   5.4830       1657
   5.5016       1658
   5.5201       1649
   5.5387       1569
   5.5573       1620
   5.5759       1547
   5.5944       1582
   5.6130       1576
   5.6316       1555
   5.6502       1615
   5.6687       1537
   5.6873       1513
   5.7059       1564
   5.7245       1559
   5.7430       1546
   5.7616       1516
   5.7802       1497
   5.7988       1427
   5.8174       1472
   5.8359       1442
   5.8545       1494
   5.8731       1479
   5.8917       1485
   5.9102       1454
   5.9288       1389
   5.9474       1452
   5.9660       1341
   5.9845       1419
   6.0031       1389
   6.0217       1388
   6.0403       1374
   6.0588       1465
   6.0774       1437
   6.0960       1325
   6.1146       1414
   6.1331       1421
   6.1517       1341
   6.1703       1330
   6.1889       1307
   6.2075       1306
   6.2260       1366
   6.2446       1350
   6.2632       1329
   6.2818       1338
   6.3003       1328
   6.3189       1385
   6.3375       1284
   6.3561       1302
   6.3746       1296
   6.3932       1245
   6.4118       1325
   6.4304       1279
   6.4489       1242
   6.4675       1311
   6.4861       1310
   6.5047       1264
   6.5232       1205
   6.5418       1262
   6.5604       1231
   6.5790       1187
   6.5976       1215
   6.6161       1259
   6.6347       1159
   6.6533       1218
   6.6719       1212
   6.6904       1241
   6.7090       1175
   6.7276       1124
   6.7462       1179
   6.7647       1170
   6.7833       1216
   6.8019       1165
   6.8205       1234
   6.8390       1144
   6.8576       1163
   6.8762       1175
   6.8948       1107
   6.9133       1135
   6.9319       1186
   6.9505       1203
   6.9691       1142
   6.9877       1154
   7.0062       1153
   7.0248       1169
   7.0434       1122
   7.0620       1040
   7.0805       1135
   7.0991       1126
   7.1177       1071
   7.1363       1106
   7.1548       1073
   7.1734       1111
   7.1920       1073
   7.2106       1115
   7.2291       1103
   7.2477       1136
   7.2663       1117
   7.2849       1117
   7.3034       1077
   7.3220       1111
   7.3406       1064
   7.3592       1067
   7.3778       1088
   7.3963       1135
   7.4149       1091
   7.4335       1122
   7.4521       1048
   7.4706       1073
   7.4892       1065
   7.5078       1095
   7.5264       1120
   7.5449       1018
   7.5635       1115
   7.5821       1043
   7.6007       1074
   7.6192       1079
   7.6378       1108
   7.6564       1113
   7.6750       1097
   7.6935       1076
   7.7121       1103
   7.7307       1094
   7.7493       1065
   7.7679       1058
   7.7864       1035
   7.8050       1129
   7.8236       1116
   7.8422       1105
   7.8607       1189
   7.8793       1127
   7.8979       1124
   7.9165       1066
   7.9350       1078
   7.9536       1090
   7.9722       1120
   7.9908       1071
   8.0093       1082
   8.0279       1112
   8.0465       1118
   8.0651       1113
   8.0836       1079
   8.1022       1110
   8.1208       1089
   8.1394       1087
   8.1580       1034
   8.1765       1079
   8.1951       1071
   8.2137       1088
   8.2323       1112
   8.2508       1137
   8.2694       1068
   8.2880       1103
   8.3066       1111
   8.3251       1056
   8.3437       1156
   8.3623       1072
   8.3809       1113
   8.3994       1118
   8.4180       1088
   8.4366       1084
   8.4552       1147
   8.4737       1133
   8.4923       1121
   8.5109       1071
   8.5295       1125
   8.5481       1062
   8.5666       1118
   8.5852       1092
   8.6038       1144
   8.6224       1107
   8.6409       1057
   8.6595       1088
   8.6781       1065
   8.6967       1130
   8.7152       1077
   8.7338       1084
   8.7524       1052
   8.7710       1126
   8.7895       1081
   8.8081       1136
   8.8267       1117
   8.8453       1115
   8.8638       1067
   8.8824       1083
   8.9010       1114
   8.9196       1087
   8.9382       1054
   8.9567       1073
   8.9753       1136
   8.9939       1119
   9.0125       1076
   9.0310       1065
   9.0496       1044
   9.0682       1094
   9.0868       1081
   9.1053       1086
   9.1239       1061
   9.1425       1083
   9.1611       1091
   9.1796       1052
   9.1982       1061
   9.2168       1131
   9.2354       1045
   9.2539       1080
   9.2725       1131
   9.2911       1085
   9.3097       1117
   9.3283       1149
   9.3468       1133
   9.3654       1099
   9.3840       1087
   9.4026       1091
   9.4211       1084
   9.4397       1106
   9.4583       1026
   9.4769       1084
   9.4954       1042
   9.5140       1134
   9.5326       1143
   9.5512       1051
   9.5697       1050
   9.5883       1093
   9.6069       1066
   9.6255       1068
   9.6441       1107
   9.6626       1124
   9.6812       1094
   9.6998       1077
   9.7184       1050
   9.7369       1082
   9.7555       1096
   9.7741       1088
   9.7927       1085
   9.8112       1125
   9.8298       1116
   9.8484       1101
   9.8670       1100
   9.8855       1110
   9.9041       1085
   9.9227       1059
   9.9413       1055
   9.9598       1090
   9.9784       1091
   9.9970       1075
  10.0156       1067
  10.0342       1050
  10.0527       1066
  10.0713       1026
  10.0899       1071
  10.1085       1050
  10.1270       1075
  10.1456       1068
  10.1642       1050
  10.1828       1128
  10.2013       1116
  10.2199       1062
  10.2385       1039
  10.2571       1105
  10.2756       1030
  10.2942       1051
  10.3128       1107
  10.3314       1077
  10.3499       1089
  10.3685       1067
  10.3871       1130
  10.4057       1042
  10.4243       1030
  10.4428       1085
  10.4614       1088
  10.4800       1077
  10.4986       1078
  10.5171       1078
  10.5357       1127
  10.5543       1077
  10.5729       1084
  10.5914        993
  10.6100       1040
  10.6286       1056
  10.6472       1044
  10.6657       1054
  10.6843       1049
  10.7029       1069
  10.7215       1067
  10.7400       1069
  10.7586       1033
  10.7772       1033
  10.7958       1034
  10.8144       1041
  10.8329       1088
  10.8515       1024
  10.8701       1038
  10.8887       1015
  10.9072        997
  10.9258       1010
  10.9444       1012
  10.9630        987
  10.9815       1007
  11.0001       1010
  11.0187        976
  11.0373       1010
  11.0558       1000
  11.0744        979
  11.0930       1025
  11.1116       1016
  11.1301        992
  11.1487       1015
  11.1673       1025
  11.1859        963
  11.2045       1028
  11.2230        970
  11.2416        969
  11.2602        986
  11.2788        948
  11.2973        984
  11.3159        960
  11.3345        924
  11.3531       1023
  11.3716        998
  11.3902        950
  11.4088        971
  11.4274        966
  11.4459       1047
  11.4645        997
  11.4831       1002
  11.5017       1053
  11.5202        977
  11.5388        955
  11.5574        952
  11.5760        966
  11.5946        952
  11.6131        937
  11.6317        986
  11.6503        982
  11.6689        944
  11.6874       1017
  11.7060        994
  11.7246        939
  11.7432       1052
  11.7617        948
  11.7803       1008
  11.7989       1019
  11.8175       1052
  11.8360       1086
  11.8546       1112
  11.8732       1295
  11.8918       1448
  11.9103       1614
  11.9289       1580
  11.9475       1538
  11.9661       1346
  11.9847       1263
  12.0032       1157
  12.0218       1030
  12.0404        985
  12.0590       1004
  12.0775        950
  12.0961        936
  12.1147        956
  12.1333        993
  12.1518        960
  12.1704        999
  12.1890        961
  12.2076        913
  12.2261        906
  12.2447        908
  12.2633        912
  12.2819        900
  12.3004        876
  12.3190        933
  12.3376        904
  12.3562        891
  12.3748        954
  12.3933        953
  12.4119        899
  12.4305        912
  12.4491        914
  12.4676        918
  12.4862        926
  12.5048        888
  12.5234        913
  12.5419        916
  12.5605        877
  12.5791        881
  12.5977        882
  12.6162        929
  12.6348        912
  12.6534        861
  12.6720        874
  12.6905        895
  12.7091        840
  12.7277        903
  12.7463        903
  12.7649        893
  12.7834        936
  12.8020        849
  12.8206        905
  12.8392        925
  12.8577        917
  12.8763        833
  12.8949        834
  12.9135        872
  12.9320        909
  12.9506        853
  12.9692        816
  12.9878        866
  13.0063        855
  13.0249        854
  13.0435        859
  13.0621        920
  13.0806        849
  13.0992        885
  13.1178        832
  13.1364        869
  13.1550        826
  13.1735        853
  13.1921        884
  13.2107        863
  13.2293        869
  13.2478        801
  13.2664        834
  13.2850        809
  13.3036        852
  13.3221        855
  13.3407        836
  13.3593        822
  13.3779        823
  13.3964        854
  13.4150        793
  13.4336        785
  13.4522        825
  13.4707        832
  13.4893        810
  13.5079        815
  13.5265        837
  13.5451        860
  13.5636        819
  13.5822        789
  13.6008        796
  13.6194        803
  13.6379        840
  13.6565        730
  13.6751        802
  13.6937        824
  13.7122        804
  13.7308        805
  13.7494        818
  13.7680        820
  13.7865        754
  13.8051        762
  13.8237        793
  13.8423        786
  13.8608        822
  13.8794        839
  13.8980        785
  13.9166        804
  13.9352        797
  13.9537        780
  13.9723        747
  13.9909        796
  14.0095        798
  14.0280        789
  14.0466        748
  14.0652        763
  14.0838        789
  14.1023        796
  14.1209        781
  14.1395        808
  14.1581        789
  14.1766        839
  14.1952        782
  14.2138        817
  14.2324        759
  14.2509        789
  14.2695        706
  14.2881        737
  14.3067        778
  14.3253        751
  14.3438        738
  14.3624        750
  14.3810        766
  14.3996        774
  14.4181        786
  14.4367        764
  14.4553        796
  14.4739        811
  14.4924        790
  14.5110        723
  14.5296        750
  14.5482        717
  14.5667        774
  14.5853        740
  14.6039        767
  14.6225        752
  14.6410        740
  14.6596        738
  14.6782        721
  14.6968        756
  14.7154        748
  14.7339        786
  14.7525        736
  14.7711        731
  14.7897        728
  14.8082        719
  14.8268        763
  14.8454        743
  14.8640        753
  14.8825        723
  14.9011        720
  14.9197        756
  14.9383        777
  14.9568        719
  14.9754        698
  14.9940        765
  15.0126        772
  15.0311        740
  15.0497        784
  15.0683        784
  15.0869        750
  15.1055        716
  15.1240        776
  15.1426        734
  15.1612        720
  15.1798        715
  15.1983        715
  15.2169        745
  15.2355        736
  15.2541        741
  15.2726        681
  15.2912        739
  15.3098        731
  15.3284        746
  15.3469        741
  15.3655        742
  15.3841        741
  15.4027        735
  15.4212        733
  15.4398        735
  15.4584        738
  15.4770        722
  15.4956        757
  15.5141        706
  15.5327        758
  15.5513        735
  15.5699        781
  15.5884        704
  15.6070        701
  15.6256        734
  15.6442        748
  15.6627        658
  15.6813        733
  15.6999        715
  15.7185        729
  15.7370        709
  15.7556        759
  15.7742        736
  15.7928        669
  15.8113        753
  15.8299        733
  15.8485        751
  15.8671        727
  15.8857        710
  15.9042        663
  15.9228        728
  15.9414        740
  15.9600        748
  15.9785        698
  15.9971        709
  16.0157        692
  16.0343        694
  16.0528        747
  16.0714        710
  16.0900        729
  16.1086        744
  16.1271        744
  16.1457        775
  16.1643        760
  16.1829        737
  16.2014        708
  16.2200        746
  16.2386        675
  16.2572        771
  16.2758        754
  16.2943        750
  16.3129        729
  16.3315        702
  16.3501        728
  16.3686        727
  16.3872        751
  16.4058        682
  16.4244        715
  16.4429        740
  16.4615        742
  16.4801        706
  16.4987        719
  16.5172        752
  16.5358        708
  16.5544        714
  16.5730        703
  16.5915        761
  16.6101        715
  16.6287        698
  16.6473        723
  16.6659        739
  16.6844        693
  16.7030        741
  16.7216        727
  16.7402        739
  16.7587        692
  16.7773        712
  16.7959        674
  16.8145        708
  16.8330        719
  16.8516        668
  16.8702        710
  16.8888        727
  16.9073        681
  16.9259        702
  16.9445        709
  16.9631        757
  16.9816        688
  17.0002        711
  17.0188        721
  17.0374        764
  17.0560        744
  17.0745        635
  17.0931        696
  17.1117        722
  17.1303        717
  17.1488        738
  17.1674        716
  17.1860        723
  17.2046        708
  17.2231        732
  17.2417        753
  17.2603        675
  17.2789        708
  17.2974        667
  17.3160        710
  17.3346        709
  17.3532        697
  17.3717        683
  17.3903        727
  17.4089        770
  17.4275        701
  17.4461        724
  17.4646        679
  17.4832        697
  17.5018        685
  17.5204        721
  17.5389        693
  17.5575        716
  17.5761        715
  17.5947        725
  17.6132        675
  17.6318        718
  17.6504        721
  17.6690        701
  17.6875        712
  17.7061        726
  17.7247        720
  17.7433        750
  17.7618        746
  17.7804        708
  17.7990        686
  17.8176        684
  17.8362        747
  17.8547        689
  17.8733        722
  17.8919        698
  17.9105        711
  17.9290        745
  17.9476        709
  17.9662        727
  17.9848        752
  18.0033        758
  18.0219        729
  18.0405        731
  18.0591        696
  18.0776        771
  18.0962        729
  18.1148        746
  18.1334        705
  18.1519        768
  18.1705        680
  18.1891        704
  18.2077        724
  18.2263        731
  18.2448        744
  18.2634        731
  18.2820        684
  18.3006        675
  18.3191        713
  18.3377        745
  18.3563        731
  18.3749        733
  18.3934        719
  18.4120        748
  18.4306        716
  18.4492        717
  18.4677        690
  18.4863        782
  18.5049        718
  18.5235        755
  18.5420        746
  18.5606        733
  18.5792        699
  18.5978        775
  18.6164        718
  18.6349        686
  18.6535        711
  18.6721        730
  18.6907        763
  18.7092        722
  18.7278        719
  18.7464        791
  18.7650        698
  18.7835        717
  18.8021        680
  18.8207        733
  18.8393        712
  18.8578        717
  18.8764        732
  18.8950        735
  18.9136        736
  18.9322        703
  18.9507        752
  18.9693        760
  18.9879        757
  19.0065        749
  19.0250        744
  19.0436        685
  19.0622        678
  19.0808        722
  19.0993        739
  19.1179        771
  19.1365        751
  19.1551        718
  19.1736        738
  19.1922        721
  19.2108        766
  19.2294        764
  19.2479        738
  19.2665        679
  19.2851        718
  19.3037        742
  19.3223        737
  19.3408        724
  19.3594        754
  19.3780        790
  19.3966        790
  19.4151        711
  19.4337        718
  19.4523        722
  19.4709        787
  19.4894        787
  19.5080        732
  19.5266        754
  19.5452        706
  19.5637        738
  19.5823        765
  19.6009        735
  19.6195        744
  19.6380        722
  19.6566        775
  19.6752        753
  19.6938        745
  19.7124        788
  19.7309        749
  19.7495        737
  19.7681        746
  19.7867        675
  19.8052        707
  19.8238        710
  19.8424        764
  19.8610        753
  19.8795        693
  19.8981        754
  19.9167        768
  19.9353        725
  19.9538        749
  19.9724        710
  19.9910        747
  20.0096        803
  20.0281        696
  20.0467        765
  20.0653        810
  20.0839        770
  20.1025        728
  20.1210        759
  20.1396        750
  20.1582        775
  20.1768        750
  20.1953        730
  20.2139        816
  20.2325        718
  20.2511        727
  20.2696        719
  20.2882        775
  20.3068        737
  20.3254        804
  20.3439        729
  20.3625        741
  20.3811        752
  20.3997        742
  20.4182        809
  20.4368        788
  20.4554        774
  20.4740        771
  20.4926        778
  20.5111        756
  20.5297        764
  20.5483        699
  20.5669        767
  20.5854        797
  20.6040        771
  20.6226        702
  20.6412        747
  20.6597        775
  20.6783        794
  20.6969        795
  20.7155        779
  20.7340        763
  20.7526        737
  20.7712        755
  20.7898        711
  20.8083        736
  20.8269        815
  20.8455        750
  20.8641        753
  20.8827        727
  20.9012        749
  20.9198        717
  20.9384        776
  20.9570        796
  20.9755        731
  20.9941        808
  21.0127        758
  21.0313        759
  21.0498        851
  21.0684        754
  21.0870        721
  21.1056        743
  21.1241        761
  21.1427        788
  21.1613        708
  21.1799        712
  21.1984        760
  21.2170        776
  21.2356        784
  21.2542        817
  21.2728        772
  21.2913        776
  21.3099        806
  21.3285        810
  21.3471        853
  21.3656        763
  21.3842        790
  21.4028        758
  21.4214        749
  21.4399        727
  21.4585        770
  21.4771        796
  21.4957        788
  21.5142        775
  21.5328        761
  21.5514        788
  21.5700        807
  21.5885        814
  21.6071        747
  21.6257        749
  21.6443        808
  21.6629        739
  21.6814        807
  21.7000        728
  21.7186        804
  21.7372        786
  21.7557        794
  21.7743        800
  21.7929        820
  21.8115        788
  21.8300        797
  21.8486        810
  21.8672        726
  21.8858        766
  21.9043        725
  21.9229        787
  21.9415        801
  21.9601        755
  21.9786        767
  21.9972        764
  22.0158        790
  22.0344        797
  22.0530        762
  22.0715        838
  22.0901        799
  22.1087        813
  22.1273        796
  22.1458        798
  22.1644        795
  22.1830        795
  22.2016        827
  22.2201        786
  22.2387        780
  22.2573        760
  22.2759        785
  22.2944        813
  22.3130        808
  22.3316        749
  22.3502        757
  22.3687        715
  22.3873        773
  22.4059        753
  22.4245        776
  22.4431        755
  22.4616        816
  22.4802        792
  22.4988        791
  22.5174        776
  22.5359        802
  22.5545        760
  22.5731        781
  22.5917        778
  22.6102        740
  22.6288        804
  22.6474        833
  22.6660        800
  22.6845        842
  22.7031        824
  22.7217        848
  22.7403        842
  22.7588        889
  22.7774        850
  22.7960        863
  22.8146       1006
  22.8332       1198
  22.8517       1393
  22.8703       1614
  22.8889       1775
  22.9075       1563
  22.9260       1516
  22.9446       1361
  22.9632       1280
  22.9818       1073
  23.0003        946
  23.0189        848
  23.0375        879
  23.0561        852
  23.0746        809
  23.0932        785
  23.1118        794
  23.1304        828
  23.1489        786
  23.1675        826
  23.1861        828
  23.2047        766
  23.2233        833
  23.2418        763
  23.2604        796
  23.2790        791
  23.2976        763
  23.3161        806
  23.3347        757
  23.3533        819
  23.3719        819
  23.3904        770
  23.4090        826
  23.4276        756
  23.4462        791
  23.4647        743
  23.4833        767
  23.5019        795
  23.5205        843
  23.5390        824
  23.5576        767
  23.5762        812
  23.5948        795
  23.6134        793
  23.6319        804
  23.6505        815
  23.6691        768
  23.6877        776
  23.7062        834
  23.7248        793
  23.7434        786
  23.7620        782
  23.7805        806
  23.7991        803
  23.8177        806
  23.8363        824
  23.8548        821
  23.8734        841
  23.8920        875
  23.9106        867
  23.9291        952
  23.9477       1037
  23.9663       1254
  23.9849       1640
  24.0035       1480
  24.0220       1443
  24.0406       1562
  24.0592       1394
  24.0778       1198
  24.0963       1039
  24.1149       1008
  24.1335        860
  24.1521        865
  24.1706        796
  24.1892        799
  24.2078        821
  24.2264        857
  24.2449        814
  24.2635        761
  24.2821        786
  24.3007        787
  24.3192        797
  24.3378        771
  24.3564        761
  24.3750        852
  24.3936        781
  24.4121        766
  24.4307        797
  24.4493        792
  24.4679        825
  24.4864        783
  24.5050        784
  24.5236        785
  24.5422        759
  24.5607        761
  24.5793        788
  24.5979        801
  24.6165        768
  24.6350        755
  24.6536        751
  24.6722        765
  24.6908        783
  24.7093        760
  24.7279        733
  24.7465        718
  24.7651        720
  24.7837        710
  24.8022        785
  24.8208        743
  24.8394        788
  24.8580        706
  24.8765        834
  24.8951        803
  24.9137        763
  24.9323        760
  24.9508        757
  24.9694        782
  24.9880        754
  25.0066        777
  25.0251        792
  25.0437        787
  25.0623        719
  25.0809        795
  25.0994        759
  25.1180        752
  25.1366        753
  25.1552        769
  25.1738        779
  25.1923        765
  25.2109        802
  25.2295        771
  25.2481        703
  25.2666        753
  25.2852        779
  25.3038        812
  25.3224        745
  25.3409        783
  25.3595        732
  25.3781        753
  25.3967        779
  25.4152        771
  25.4338        717
  25.4524        731
  25.4710        775
  25.4895        768
  25.5081        757
  25.5267        752
  25.5453        770
  25.5639        744
  25.5824        759
  25.6010        814
  25.6196        774
  25.6382        723
  25.6567        801
  25.6753        799
  25.6939        738
  25.7125        801
  25.7310        778
  25.7496        724
  25.7682        752
  25.7868        799
  25.8053        739
  25.8239        741
  25.8425        805
  25.8611        771
  25.8796        797
  25.8982        801
  25.9168        819
  25.9354        806
  25.9540        756
  25.9725        725
  25.9911        755
  26.0097        758
  26.0283        729
  26.0468        756
  26.0654        754
  26.0840        675
  26.1026        762
  26.1211        766
  26.1397        737
  26.1583        789
  26.1769        714
  26.1954        734
  26.2140        749
  26.2326        685
  26.2512        740
  26.2697        719
  26.2883        733
  26.3069        770
  26.3255        706
  26.3441        759
  26.3626        721
  26.3812        718
  26.3998        744
  26.4184        731
  26.4369        754
  26.4555        732
  26.4741        734
  26.4927        720
  26.5112        701
  26.5298        736
  26.5484        759
  26.5670        690
  26.5855        762
  26.6041        724
  26.6227        715
  26.6413        714
  26.6598        747
  26.6784        703
  26.6970        706
  26.7156        772
  26.7342        712
  26.7527        693
  26.7713        733
  26.7899        683
  26.8085        690
  26.8270        722
  26.8456        736
  26.8642        746
  26.8828        728
  26.9013        650
  26.9199        716
  26.9385        744
  26.9571        727
  26.9756        704
  26.9942        711
  27.0128        678
  27.0314        712
  27.0499        713
  27.0685        694
  27.0871        738
  27.1057        733
  27.1243        726
  27.1428        690
  27.1614        688
  27.1800        659
  27.1986        690
  27.2171        670
  27.2357        705
  27.2543        675
  27.2729        691
  27.2914        724
  27.3100        694
  27.3286        688
  27.3472        700
  27.3657        707
  27.3843        722
  27.4029        673
  27.4215        671
  27.4400        693
  27.4586        721
  27.4772        672
  27.4958        711
  27.5144        687
  27.5329        686
  27.5515        651
  27.5701        651
  27.5887        714
  27.6072        661
  27.6258        705
  27.6444        696
  27.6630        657
  27.6815        667
  27.7001        692
  27.7187        660
  27.7373        655
  27.7558        700
  27.7744        684
  27.7930        673
  27.8116        679
  27.8301        630
  27.8487        706
  27.8673        727
  27.8859        657
  27.9045        733
  27.9230        697
  27.9416        713
  27.9602        662
  27.9788        673
  27.9973        666
  28.0159        653
  28.0345        655
  28.0531        719
  28.0716        683
  28.0902        713
  28.1088        705
  28.1274        722
  28.1459        717
  28.1645        760
  28.1831        700
  28.2017        714
  28.2203        678
  28.2388        662
  28.2574        665
  28.2760        613
  28.2946        642
  28.3131        640
  28.3317        653
  28.3503        660
  28.3689        604
  28.3874        658
  28.4060        638
  28.4246        653
  28.4432        664
  28.4617        648
  28.4803        667
  28.4989        567
  28.5175        633
  28.5360        604
  28.5546        664
  28.5732        649
  28.5918        657
  28.6104        652
  28.6289        674
  28.6475        703
  28.6661        658
  28.6847        643
  28.7032        641
  28.7218        648
  28.7404        643
  28.7590        653
  28.7775        651
  28.7961        649
  28.8147        579
  28.8333        656
  28.8518        669
  28.8704        629
  28.8890        613
  28.9076        634
  28.9261        632
  28.9447        654
  28.9633        587
  28.9819        639
  29.0005        624
  29.0190        641
  29.0376        642
  29.0562        655
  29.0748        633
  29.0933        606
  29.1119        639
  29.1305        604
  29.1491        631
  29.1676        621
  29.1862        640
  29.2048        594
  29.2234        672
  29.2419        646
  29.2605        651
  29.2791        607
  29.2977        655
  29.3162        638
  29.3348        694
  29.3534        675
  29.3720        641
  29.3906        618
  29.4091        669
  29.4277        703
  29.4463        640
  29.4649        585
  29.4834        662
  29.5020        677
  29.5206        609
  29.5392        619
  29.5577        581
  29.5763        597
  29.5949        616
  29.6135        590
  29.6320        606
  29.6506        612
  29.6692        587
  29.6878        642
  29.7063        609
  29.7249        625
  29.7435        613
  29.7621        652
  29.7807        633
  29.7992        620
  29.8178        616
  29.8364        636
  29.8550        683
  29.8735        625
  29.8921        620
  29.9107        660
  29.9293        629
  29.9478        629
  29.9664        656
  29.9850        654
  30.0036        648
  30.0221        645
  30.0407        619
  30.0593        632
  30.0779        618
  30.0964        604
  30.1150        630
  30.1336        620
  30.1522        643
  30.1708        619
  30.1893        620
  30.2079        610
  30.2265        636
  30.2451        575
  30.2636        640
  30.2822        599
  30.3008        630
  30.3194        559
  30.3379        569
  30.3565        575
  30.3751        586
  30.3937        619
  30.4122        560
  30.4308        613
  30.4494        607
  30.4680        556
  30.4865        586
  30.5051        602
  30.5237        552
  30.5423        596
  30.5609        597
  30.5794        603
  30.5980        577
  30.6166        579
  30.6352        590
  30.6537        600
  30.6723        517
  30.6909        562
  30.7095        602
  30.7280        544
  30.7466        548
  30.7652        557
  30.7838        566
  30.8023        552
  30.8209        570
  30.8395        573
  30.8581        585
  30.8766        599
  30.8952        573
  30.9138        553
  30.9324        544
  30.9510        529
  30.9695        559
  30.9881        588
  31.0067        624
  31.0253        562
  31.0438        575
  31.0624        611
  31.0810        539
  31.0996        581
  31.1181        529
  31.1367        564
  31.1553        576
  31.1739        573
  31.1924        559
  31.2110        580
  31.2296        611
  31.2482        561
  31.2667        549
  31.2853        529
  31.3039        547
  31.3225        537
  31.3411        503
  31.3596        581
  31.3782        528
  31.3968        567
  31.4154        560
  31.4339        529
  31.4525        552
  31.4711        539
  31.4897        548
  31.5082        562
  31.5268        522
  31.5454        593
  31.5640        572
  31.5825        560
  31.6011        588
  31.6197        591
  31.6383        577
  31.6568        580
  31.6754        572
  31.6940        571
  31.7126        583
  31.7312        553
  31.7497        536
  31.7683        553
  31.7869        564
  31.8055        524
  31.8240        570
  31.8426        582
  31.8612        599
  31.8798        599
  31.8983        585
  31.9169        567
  31.9355        574
  31.9541        617
  31.9726        634
  31.9912        659
  32.0098        675
  32.0284        720
  32.0469        660
  32.0655        644
  32.0841        698
  32.1027        616
  32.1213        586
  32.1398        593
  32.1584        601
  32.1770        580
  32.1956        554
  32.2141        568
  32.2327        574
  32.2513        591
  32.2699        604
  32.2884        556
  32.3070        670
  32.3256        636
  32.3442        609
  32.3627        617
  32.3813        568
  32.3999        607
  32.4185        613
  32.4370        652
  32.4556        629
  32.4742        640
  32.4928        730
  32.5114        853
  32.5299       1152
  32.5485       1428
  32.5671       1750
  32.5857       1795
  32.6042       1718
  32.6228       1429
  32.6414       1347
  32.6600       1321
  32.6785       1160
  32.6971        954
  32.7157        869
  32.7343        666
  32.7528        631
  32.7714        613
  32.7900        566
  32.8086        546
  32.8271        579
  32.8457        504
  32.8643        560
  32.8829        499
  32.9015        579
  32.9200        530
  32.9386        514
  32.9572        561
  32.9758        543
  32.9943        547
  33.0129        512
  33.0315        567
  33.0501        510
  33.0686        520
  33.0872        516
  33.1058        566
  33.1244        563
  33.1429        549
  33.1615        575
  33.1801        583
  33.1987        606
  33.2172        657
  33.2358        609
  33.2544        701
  33.2730        710
  33.2916        719
  33.3101        779
  33.3287        927
  33.3473       1275
  33.3659       1778
  33.3844       2450
  33.4030       3241
  33.4216       3523
  33.4402       3059
  33.4587       2608
  33.4773       2326
  33.4959       2154
  33.5145       2049
  33.5330       1584
  33.5516       1127
  33.5702        872
  33.5888        714
  33.6073        645
  33.6259        650
  33.6445        576
  33.6631        540
  33.6817        587
  33.7002        529
  33.7188        547
  33.7374        549
  33.7560        515
  33.7745        486
  33.7931        553
  33.8117        473
  33.8303        508
  33.8488        505
  33.8674        486
  33.8860        485
  33.9046        524
  33.9231        486
  33.9417        471
  33.9603        478
  33.9789        467
  33.9974        478
  34.0160        489
  34.0346        492
  34.0532        494
  34.0718        495
  34.0903        529
  34.1089        488
  34.1275        516
  34.1461        490
  34.1646        444
  34.1832        498
  34.2018        499
  34.2204        473
  34.2389        504
  34.2575        488
  34.2761        494
  34.2947        447
  34.3132        480
  34.3318        445
  34.3504        465
  34.3690        493
  34.3875        497
  34.4061        502
  34.4247        458
  34.4433        470
  34.4619        495
  34.4804        471
  34.4990        482
  34.5176        468
  34.5362        479
  34.5547        469
  34.5733        473
  34.5919        469
  34.6105        432
  34.6290        456
  34.6476        500
  34.6662        484
  34.6848        484
  34.7033        521
  34.7219        461
  34.7405        473
  34.7591        494
  34.7776        503
  34.7962        489
  34.8148        480
  34.8334        447
  34.8520        437
  34.8705        465
  34.8891        464
  34.9077        465
  34.9263        470
  34.9448        411
  34.9634        484
  34.9820        440
  35.0006        415
  35.0191        461
  35.0377        445
  35.0563        456
  35.0749        491
  35.0934        471
  35.1120        448
  35.1306        423
  35.1492        480
  35.1677        443
  35.1863        428
  35.2049        436
  35.2235        479
  35.2421        444
  35.2606        480
  35.2792        450
  35.2978        445
  35.3164        467
  35.3349        441
  35.3535        481
  35.3721        475
  35.3907        449
  35.4092        452
  35.4278        497
  35.4464        478
  35.4650        473
  35.4835        473
  35.5021        489
  35.5207        470
  35.5393        482
  35.5578        520
  35.5764        513
  35.5950        536
  35.6136        532
  35.6322        509
  35.6507        499
  35.6693        522
  35.6879        453
  35.7065        462
  35.7250        443
  35.7436        468
  35.7622        465
  35.7808        465
  35.7993        438
  35.8179        424
  35.8365        459
  35.8551        447
  35.8736        464
  35.8922        459
  35.9108        442
  35.9294        421
  35.9479        406
  35.9665        472
  35.9851        439
  36.0037        415
  36.0223        436
  36.0408        432
  36.0594        389
  36.0780        409
  36.0966        425
  36.1151        438
  36.1337        442
  36.1523        424
  36.1709        441
  36.1894        450
  36.2080        410
  36.2266        385
  36.2452        407
  36.2637        446
  36.2823        448
  36.3009        478
  36.3195        514
  36.3380        532
  36.3566        577
  36.3752        519
  36.3938        526
  36.4124        554
  36.4309        533
  36.4495        509
  36.4681        480
  36.4867        495
  36.5052        492
  36.5238        434
  36.5424        440
  36.5610        443
  36.5795        456
  36.5981        436
  36.6167        460
  36.6353        413
  36.6538        426
  36.6724        393
  36.6910        416
  36.7096        450
  36.7281        434
  36.7467        437
  36.7653        457
  36.7839        472
  36.8025        441
  36.8210        409
  36.8396        402
  36.8582        415
  36.8768        392
  36.8953        386
  36.9139        409
  36.9325        424
  36.9511        402
  36.9696        420
  36.9882        412
  37.0068        401
  37.0254        432
  37.0439        390
  37.0625        406
  37.0811        385
  37.0997        415
  37.1182        395
  37.1368        405
  37.1554        415
  37.1740        443
  37.1926        443
  37.2111        431
  37.2297        410
  37.2483        427
  37.2669        398
  37.2854        392
  37.3040        434
  37.3226        420
  37.3412        430
  37.3597        399
  37.3783        374
  37.3969        384
  37.4155        400
  37.4340        391
  37.4526        390
  37.4712        438
  37.4898        390
  37.5084        406
  37.5269        405
  37.5455        400
  37.5641        396
  37.5827        375
  37.6012        365
  37.6198        444
  37.6384        405
  37.6570        417
  37.6755        398
  37.6941        398
  37.7127        374
  37.7313        426
  37.7498        370
  37.7684        399
  37.7870        414
  37.8056        400
  37.8241        404
  37.8427        418
  37.8613        406
  37.8799        389
  37.8985        406
  37.9170        396
  37.9356        397
  37.9542        399
  37.9728        412
  37.9913        375
  38.0099        425
  38.0285        408
  38.0471        428
  38.0656        404
  38.0842        397
  38.1028        387
  38.1214        381
  38.1399        392
  38.1585        390
  38.1771        403
  38.1957        400
  38.2142        433
  38.2328        376
  38.2514        389
  38.2700        392
  38.2886        377
  38.3071        402
  38.3257        380
  38.3443        369
  38.3629        403
  38.3814        376
  38.4000        418
  38.4186        419
  38.4372        363
  38.4557        407
  38.4743        371
  38.4929        402
  38.5115        399
  38.5300        393
  38.5486        379
  38.5672        401
  38.5858        400
  38.6043        428
  38.6229        429
  38.6415        453
  38.6601        385
  38.6787        389
  38.6972        434
  38.7158        454
  38.7344        459
  38.7530        471
  38.7715        471
  38.7901        502
  38.8087        452
  38.8273        440
  38.8458        440
  38.8644        412
  38.8830        412
  38.9016        421
  38.9201        432
  38.9387        419
  38.9573        403
  38.9759        414
  38.9944        393
  39.0130        416
  39.0316        411
  39.0502        378
  39.0688        396
  39.0873        396
  39.1059        383
  39.1245        394
  39.1431        380
  39.1616        427
  39.1802        386
  39.1988        349
  39.2174        394
  39.2359        396
  39.2545        366
  39.2731        366
  39.2917        353
  39.3102        369
  39.3288        376
  39.3474        376
  39.3660        353
  39.3845        377
  39.4031        390
  39.4217        386
  39.4403        389
  39.4589        394
  39.4774        340
  39.4960        350
  39.5146        384
  39.5332        388
  39.5517        391
  39.5703        352
  39.5889        386
  39.6075        382
  39.6260        371
  39.6446        395
  39.6632        374
  39.6818        390
  39.7003        365
  39.7189        392
  39.7375        369
  39.7561        396
  39.7746        374
  39.7932        411
  39.8118        381
  39.8304        372
  39.8490        358
  39.8675        392
  39.8861        398
  39.9047        370
  39.9233        409
  39.9418        383
  39.9604        357
  39.9790        373
  39.9976        359
  40.0161        426
  40.0347        354
  40.0533        373
  40.0719        344
  40.0904        387
  40.1090        373
  40.1276        375
  40.1462        353
  40.1647        370
  40.1833        372
  40.2019        352
  40.2205        382
  40.2391        388
  40.2576        397
  40.2762        358
  40.2948        360
  40.3134        396
  40.3319        347
  40.3505        385
  40.3691        380
  40.3877        401
  40.4062        390
  40.4248        380
  40.4434        358
  40.4620        393
  40.4805        360
  40.4991        358
  40.5177        392
  40.5363        378
  40.5548        401
  40.5734        376
  40.5920        352
  40.6106        423
  40.6292        436
  40.6477        425
  40.6663        406
  40.6849        405
  40.7035        439
  40.7220        391
  40.7406        447
  40.7592        476
  40.7778        493
  40.7963        562
  40.8149        649
  40.8335        870
  40.8521       1140
  40.8706       1268
  40.8892       1331
  40.9078       1076
  40.9264        924
  40.9449        892
  40.9635        882
  40.9821        919
  41.0007        875
  41.0193        700
  41.0378        590
  41.0564        500
  41.0750        471
  41.0936        396
  41.1121        399
  41.1307        438
  41.1493        385
  41.1679        390
  41.1864        371
  41.2050        378
  41.2236        364
  41.2422        402
  41.2607        334
  41.2793        347
  41.2979        376
  41.3165        389
  41.3350        366
  41.3536        348
  41.3722        329
  41.3908        330
  41.4094        375
  41.4279        370
  41.4465        382
  41.4651        392
  41.4837        408
  41.5022        353
  41.5208        384
  41.5394        390
  41.5580        384
  41.5765        399
  41.5951        340
  41.6137        374
  41.6323        361
  41.6508        381
  41.6694        358
  41.6880        383
  41.7066        344
  41.7251        343
  41.7437        394
  41.7623        376
  41.7809        383
  41.7995        372
  41.8180        394
  41.8366        376
  41.8552        396
  41.8738        321
  41.8923        360
  41.9109        361
  41.9295        362
  41.9481        367
  41.9666        379
  41.9852        337
  42.0038        367
  42.0224        382
  42.0409        336
  42.0595        362
  42.0781        374
  42.0967        368
  42.1152        348
  42.1338        365
  42.1524        370
  42.1710        369
  42.1896        383
  42.2081        342
  42.2267        346
  42.2453        368
  42.2639        325
  42.2824        354
  42.3010        352
  42.3196        364
  42.3382        320
  42.3567        362
  42.3753        359
  42.3939        373
  42.4125        409
  42.4310        386
  42.4496        367
  42.4682        365
  42.4868        349
  42.5053        383
  42.5239        355
  42.5425        358
  42.5611        389
  42.5797        370
  42.5982        382
  42.6168        350
  42.6354        370
  42.6540        372
  42.6725        353
  42.6911        363
  42.7097        374
  42.7283        376
  42.7468        371
  42.7654        363
  42.7840        373
  42.8026        324
  42.8211        378
  42.8397        341
  42.8583        396
  42.8769        375
  42.8954        371
  42.9140        351
  42.9326        351
  42.9512        348
  42.9698        356
  42.9883        371
  43.0069        369
  43.0255        399
  43.0441        384
  43.0626        378
  43.0812        413
  43.0998        370
  43.1184        370
  43.1369        357
  43.1555        327
  43.1741        359
  43.1927        377
  43.2112        376
  43.2298        401
  43.2484        358
  43.2670        338
  43.2855        385
  43.3041        386
  43.3227        435
  43.3413        424
  43.3599        426
  43.3784        464
  43.3970        485
  43.4156        457
  43.4342        457
  43.4527        448
  43.4713        420
  43.4899        432
  43.5085        392
  43.5270        452
  43.5456        401
  43.5642        393
  43.5828        356
  43.6013        345
  43.6199        403
  43.6385        341
  43.6571        366
  43.6756        426
  43.6942        379
  43.7128        335
  43.7314        353
  43.7500        347
  43.7685        350
  43.7871        353
  43.8057        392
  43.8243        327
  43.8428        330
  43.8614        366
  43.8800        324
  43.8986        375
  43.9171        353
  43.9357        325
  43.9543        336
  43.9729        328
  43.9914        386
  44.0100        349
  44.0286        341
  44.0472        351
  44.0657        353
  44.0843        356
  44.1029        373
  44.1215        346
  44.1401        383
  44.1586        332
  44.1772        365
  44.1958        359
  44.2144        384
  44.2329        391
  44.2515        347
  44.2701        346
  44.2887        366
  44.3072        340
  44.3258        378
  44.3444        349
  44.3630        341
  44.3815        351
  44.4001        345
  44.4187        353
  44.4373        339
  44.4558        374
  44.4744        349
  44.4930        363
  44.5116        364
  44.5302        412
  44.5487        377
  44.5673        370
  44.5859        352
  44.6045        387
  44.6230        395
  44.6416        389
  44.6602        376
  44.6788        387
  44.6973        360
  44.7159        342
  44.7345        359
  44.7531        375
  44.7716        358
  44.7902        388
  44.8088        355
  44.8274        368
  44.8459        346
  44.8645        351
  44.8831        333
  44.9017        334
  44.9203        337
  44.9388        342
  44.9574        372
  44.9760        334
  44.9946        324
  45.0131        366
  45.0317        354
  45.0503        348
  45.0689        338
  45.0874        332
  45.1060        366
  45.1246        360
  45.1432        355
  45.1617        377
  45.1803        329
  45.1989        336
  45.2175        342
  45.2360        361
  45.2546        351
  45.2732        343
  45.2918        380
  45.3104        366
  45.3289        343
  45.3475        366
  45.3661        351
  45.3847        395
  45.4032        313
  45.4218        371
  45.4404        343
  45.4590        352
  45.4775        331
  45.4961        366
  45.5147        344
  45.5333        383
  45.5518        353
  45.5704        354
  45.5890        329
  45.6076        374
  45.6261        321
  45.6447        394
  45.6633        386
  45.6819        376
  45.7005        362
  45.7190        327
  45.7376        324
  45.7562        382
  45.7748        366
  45.7933        357
  45.8119        358
  45.8305        340
  45.8491        354
  45.8676        331
  45.8862        353
  45.9048        348
  45.9234        316
  45.9419        369
  45.9605        328
  45.9791        328
  45.9977        346
  46.0162        363
  46.0348        382
  46.0534        366
  46.0720        340
  46.0906        354
  46.1091        362
  46.1277        339
  46.1463        352
  46.1649        344
  46.1834        368
  46.2020        366
  46.2206        375
  46.2392        361
  46.2577        352
  46.2763        360
  46.2949        379
  46.3135        402
  46.3320        400
  46.3506        406
  46.3692        407
  46.3878        450
  46.4063        400
  46.4249        405
  46.4435        373
  46.4621        413
  46.4807        402
  46.4992        432
  46.5178        403
  46.5364        425
  46.5550        367
  46.5735        416
  46.5921        427
  46.6107        406
  46.6293        408
  46.6478        485
  46.6664        567
  46.6850        751
  46.7036        891
  46.7221       1011
  46.7407        997
  46.7593        761
  46.7779        681
  46.7965        656
  46.8150        599
  46.8336        699
  46.8522        735
  46.8708        644
  46.8893        579
  46.9079        457
  46.9265        430
  46.9451        383
  46.9636        404
  46.9822        363
  47.0008        385
  47.0194        339
  47.0379        356
  47.0565        345
  47.0751        382
  47.0937        341
  47.1122        373
  47.1308        358
  47.1494        329
  47.1680        320
  47.1866        335
  47.2051        316
  47.2237        353
  47.2423        357
  47.2609        338
  47.2794        318
  47.2980        318
  47.3166        321
  47.3352        318
  47.3537        336
  47.3723        335
  47.3909        348
  47.4095        320
  47.4280        295
  47.4466        327
  47.4652        354
  47.4838        341
  47.5023        340
  47.5209        325
  47.5395        317
  47.5581        324
  47.5767        340
  47.5952        324
  47.6138        327
  47.6324        364
  47.6510        327
  47.6695        333
  47.6881        363
  47.7067        343
  47.7253        326
  47.7438        365
  47.7624        369
  47.7810        342
  47.7996        316
  47.8181        349
  47.8367        326
  47.8553        336
  47.8739        355
  47.8924        329
  47.9110        337
  47.9296        338
  47.9482        363
  47.9668        330
  47.9853        356
  48.0039        321
  48.0225        351
  48.0411        338
  48.0596        362
  48.0782        347
  48.0968        375
  48.1154        323
  48.1339        310
  48.1525        337
  48.1711        331
  48.1897        350
  48.2082        346
  48.2268        370
  48.2454        329
  48.2640        358
  48.2825        354
  48.3011        372
  48.3197        344
  48.3383        359
  48.3569        377
  48.3754        388
  48.3940        404
  48.4126        393
  48.4312        389
  48.4497        413
  48.4683        376
  48.4869        367
  48.5055        381
  48.5240        366
  48.5426        339
  48.5612        373
  48.5798        370
  48.5983        344
  48.6169        322
  48.6355        336
  48.6541        334
  48.6726        328
  48.6912        353
  48.7098        380
  48.7284        342
  48.7470        348
  48.7655        344
  48.7841        347
  48.8027        347
  48.8213        336
  48.8398        337
  48.8584        333
  48.8770        358
  48.8956        355
  48.9141        321
  48.9327        376
  48.9513        334
  48.9699        355
  48.9884        342
  49.0070        345
  49.0256        372
  49.0442        357
  49.0627        375
  49.0813        419
  49.0999        433
  49.1185        491
  49.1371        623
  49.1556        679
  49.1742        737
  49.1928        640
  49.2114        592
  49.2299        565
  49.2485        509
  49.2671        549
  49.2857        556
  49.3042        515
  49.3228        526
  49.3414        464
  49.3600        429
  49.3785        387
  49.3971        354
  49.4157        328
  49.4343        343
  49.4528        326
  49.4714        346
  49.4900        367
  49.5086        346
  49.5272        359
  49.5457        336
  49.5643        332
  49.5829        332
  49.6015        287
  49.6200        349
  49.6386        354
  49.6572        318
  49.6758        327
  49.6943        353
  49.7129        326
  49.7315        336
  49.7501        330
  49.7686        393
  49.7872        318
  49.8058        355
  49.8244        368
  49.8429        346
  49.8615        297
  49.8801        326
  49.8987        358
  49.9173        322
  49.9358        299
  49.9544        348
  49.9730        333
  49.9916        358
  50.0101        353
  50.0287        313
  50.0473        311
  50.0659        324
  50.0844        341
  50.1030        332
  50.1216        339
  50.1402        300
  50.1587        354
  50.1773        322
  50.1959        353
  50.2145        292
  50.2330        337
  50.2516        289
  50.2702        346
  50.2888        328
  50.3074        310
  50.3259        337
  50.3445        346
  50.3631        322
  50.3817        320
  50.4002        302
  50.4188        334
  50.4374        345
  50.4560        341
  50.4745        334
  50.4931        319
  50.5117        336
  50.5303        347
  50.5488        312
  50.5674        321
  50.5860        308
  50.6046        346
  50.6231        330
  50.6417        284
  50.6603        335
  50.6789        330
  50.6975        326
  50.7160        318
  50.7346        340
  50.7532        333
  50.7718        317
  50.7903        320
  50.8089        319
  50.8275        308
  50.8461        326
  50.8646        330
  50.8832        308
  50.9018        348
  50.9204        358
  50.9389        320
  50.9575        316
  50.9761        329
  50.9947        328
  51.0132        312
  51.0318        299
  51.0504        331
  51.0690        339
  51.0876        333
  51.1061        356
  51.1247        335
  51.1433        320
  51.1619        318
  51.1804        296
  51.1990        316
  51.2176        333
  51.2362        290
  51.2547        333
  51.2733        321
  51.2919        349
  51.3105        322
  51.3290        326
  51.3476        297
  51.3662        329
  51.3848        320
  51.4033        376
  51.4219        357
  51.4405        299
  51.4591        336
  51.4777        355
  51.4962        304
  51.5148        300
  51.5334        302
  51.5520        326
  51.5705        340
  51.5891        340
  51.6077        323
  51.6263        332
  51.6448        315
  51.6634        308
  51.6820        325
  51.7006        324
  51.7191        332
  51.7377        327
  51.7563        352
  51.7749        315
  51.7934        352
  51.8120        326
  51.8306        317
  51.8492        331
  51.8678        372
  51.8863        336
  51.9049        308
  51.9235        334
  51.9421        333
  51.9606        334
  51.9792        373
  51.9978        343
  52.0164        324
  52.0349        326
  52.0535        327
  52.0721        343
  52.0907        335
  52.1092        352
  52.1278        339
  52.1464        340
  52.1650        346
  52.1835        323
  52.2021        331
  52.2207        332
  52.2393        336
  52.2579        331
  52.2764        342
  52.2950        322
  52.3136        364
  52.3322        328
  52.3507        340
  52.3693        339
  52.3879        344
  52.4065        335
  52.4250        353
  52.4436        327
  52.4622        316
  52.4808        335
  52.4993        338
  52.5179        328
  52.5365        360
  52.5551        359
  52.5736        444
  52.5922        463
  52.6108        553
  52.6294        672
  52.6480        624
  52.6665        593
  52.6851        481
  52.7037        477
  52.7223        421
  52.7408        447
  52.7594        459
  52.7780        534
  52.7966        459
  52.8151        467
  52.8337        362
  52.8523        381
  52.8709        402
  52.8894        373
  52.9080        374
  52.9266        369
  52.9452        350
  52.9637        359
  52.9823        334
  53.0009        352
  53.0195        322
  53.0381        331
  53.0566        327
  53.0752        352
  53.0938        394
  53.1124        356
  53.1309        402
  53.1495        408
  53.1681        426
  53.1867        520
  53.2052        571
  53.2238        523
  53.2424        442
  53.2610        408
  53.2795        415
  53.2981        459
  53.3167        437
  53.3353        409
  53.3538        434
  53.3724        413
  53.3910        399
  53.4096        379
  53.4282        359
  53.4467        384
  53.4653        322
  53.4839        358
  53.5025        330
  53.5210        300
  53.5396        324
  53.5582        311
  53.5768        322
  53.5953        313
  53.6139        345
  53.6325        332
  53.6511        332
  53.6696        293
  53.6882        325
  53.7068        332
  53.7254        304
  53.7439        315
  53.7625        320
  53.7811        305
  53.7997        286
  53.8183        322
  53.8368        320
  53.8554        326
  53.8740        297
  53.8926        328
  53.9111        297
  53.9297        336
  53.9483        319
  53.9669        309
  53.9854        324
  54.0040        308
  54.0226        334
  54.0412        334
  54.0597        301
  54.0783        318
  54.0969        357
  54.1155        329
  54.1340        346
  54.1526        351
  54.1712        361
  54.1898        379
  54.2084        371
  54.2269        349
  54.2455        340
  54.2641        321
  54.2827        369
  54.3012        367
  54.3198        364
  54.3384        353
  54.3570        358
  54.3755        339
  54.3941        335
  54.4127        295
  54.4313        354
  54.4498        311
  54.4684        326
  54.4870        348
  54.5056        353
  54.5241        300
  54.5427        323
  54.5613        303
  54.5799        362
  54.5985        335
  54.6170        346
  54.6356        357
  54.6542        348
  54.6728        319
  54.6913        363
  54.7099        318
  54.7285        346
  54.7471        353
  54.7656        338
  54.7842        341
  54.8028        373
  54.8214        389
  54.8399        446
  54.8585        513
  54.8771        600
  54.8957        658
  54.9142        601
  54.9328        535
  54.9514        460
  54.9700        401
  54.9886        426
  55.0071        421
  55.0257        448
  55.0443        504
  55.0629        471
  55.0814        438
  55.1000        412
  55.1186        385
  55.1372        346
  55.1557        353
  55.1743        360
  55.1929        346
  55.2115        346
  55.2300        326
  55.2486        341
  55.2672        331
  55.2858        343
  55.3043        326
  55.3229        309
  55.3415        304
  55.3601        309
  55.3787        317
  55.3972        349
  55.4158        314
  55.4344        321
  55.4530        304
  55.4715        368
  55.4901        315
  55.5087        329
  55.5273        317
  55.5458        311
  55.5644        349
  55.5830        319
  55.6016        321
  55.6201        306
  55.6387        320
  55.6573        307
  55.6759        311
  55.6944        321
  55.7130        343
  55.7316        321
  55.7502        311
  55.7688        323
  55.7873        335
  55.8059        290
  55.8245        342
  55.8431        347
  55.8616        344
  55.8802        280
  55.8988        302
  55.9174        341
  55.9359        345
  55.9545        296
  55.9731        330
  55.9917        346
  56.0102        304
  56.0288        300
  56.0474        307
  56.0660        316
  56.0846        339
  56.1031        311
  56.1217        310
  56.1403        287
  56.1589        359
  56.1774        366
  56.1960        320
  56.2146        300
  56.2332        320
  56.2517        314
  56.2703        313
  56.2889        355
  56.3075        329
  56.3260        345
  56.3446        318
  56.3632        323
  56.3818        302
  56.4003        328
  56.4189        317
  56.4375        325
  56.4561        331
  56.4747        331
  56.4932        316
  56.5118        329
  56.5304        306
  56.5490        306
  56.5675        327
  56.5861        314
  56.6047        336
  56.6233        345
  56.6418        342
  56.6604        300
  56.6790        312
  56.6976        345
  56.7161        319
  56.7347        344
  56.7533        313
  56.7719        311
  56.7904        318
  56.8090        313
  56.8276        347
  56.8462        367
  56.8648        352
  56.8833        359
  56.9019        348
  56.9205        345
  56.9391        333
  56.9576        318
  56.9762        325
  56.9948        343
  57.0134        346
  57.0319        328
  57.0505        362
  57.0691        334
  57.0877        309
  57.1062        356
  57.1248        299
  57.1434        331
  57.1620        333
  57.1805        305
  57.1991        314
  57.2177        324
  57.2363        330
  57.2549        315
  57.2734        337
  57.2920        343
  57.3106        347
  57.3292        314
  57.3477        346
  57.3663        366
  57.3849        354
  57.4035        321
  57.4220        400
  57.4406        372
  57.4592        389
  57.4778        411
  57.4963        378
  57.5149        328
  57.5335        348
  57.5521        375
  57.5706        327
  57.5892        355
  57.6078        334
  57.6264        359
  57.6450        361
  57.6635        315
  57.6821        345
  57.7007        315
  57.7193        334
  57.7378        349
  57.7564        303
  57.7750        330
  57.7936        354
  57.8121        316
  57.8307        301
  57.8493        305
  57.8679        330
  57.8864        343
  57.9050        319
  57.9236        346
  57.9422        330
  57.9607        335
  57.9793        329
  57.9979        318
  58.0165        366
  58.0351        326
  58.0536        297
  58.0722        321
  58.0908        289
  58.1094        340
  58.1279        339
  58.1465        335
  58.1651        356
  58.1837        325
  58.2022        324
  58.2208        374
  58.2394        365
  58.2580        371
  58.2765        380
  58.2951        340
  58.3137        346
  58.3323        339
  58.3508        362
  58.3694        356
  58.3880        348
  58.4066        354
  58.4252        345
  58.4437        362
  58.4623        369
  58.4809        396
  58.4995        410
  58.5180        411
  58.5366        445
  58.5552        516
  58.5738        592
  58.5923        755
  58.6109        991
  58.6295       1244
  58.6481       1309
  58.6666       1293
  58.6852        976
  58.7038        802
  58.7224        689
  58.7409        645
  58.7595        719
  58.7781        744
  58.7967        836
  58.8153        853
  58.8338        757
  58.8524        704
  58.8710        538
  58.8896        511
  58.9081        440
  58.9267        420
  58.9453        362
  58.9639        373
  58.9824        384
  59.0010        354
  59.0196        366
  59.0382        395
  59.0567        373
  59.0753        374
  59.0939        322
  59.1125        315
  59.1310        317
  59.1496        314
  59.1682        330
  59.1868        348
  59.2054        329
  59.2239        333
  59.2425        331
  59.2611        327
  59.2797        315
  59.2982        317
  59.3168        317
  59.3354        320
  59.3540        306
  59.3725        349
  59.3911        342
  59.4097        329
  59.4283        328
  59.4468        322
  59.4654        339
  59.4840        313
  59.5026        320
  59.5211        344
  59.5397        323
  59.5583        299
  59.5769        326
  59.5955        287
  59.6140        307
  59.6326        314
  59.6512        300
  59.6698        331
  59.6883        331
  59.7069        342
  59.7255        315
  59.7441        327
  59.7626        321
  59.7812        297
  59.7998        306
  59.8184        324
  59.8369        329
  59.8555        324
  59.8741        327
  59.8927        354
  59.9112        343
  59.9298        348
  59.9484        348
  59.9670        323
