
   5.0000       1924
   5.0186       1919
   5.0372       1869
   5.0557       1911
   5.0743       1829
   5.0929       1829
   5.1115       1831
   5.1300       1817
   5.1486       1888
   5.1672       1800
   5.1858       1933
   5.2043       1889
   5.2229       1831
   5.2415       1821
   5.2601       1737
   5.2786       1758
   5.2972       1787
   5.3158       1695
   5.3344       1731
   5.3529       1807
   5.3715       1728
   5.3901       1719
   5.4087       1718
   5.4273       1643
   5.4458       1668
   5.4644       1605
   5.4830       1604
   5.5016       1687
   5.5201       1613
   5.5387       1668
   5.5573       1620
   5.5759       1648
   5.5944       1596
   5.6130       1600
   5.6316       1465
   5.6502       1628
   5.6687       1637
   5.6873       1608
   5.7059       1570
   5.7245       1472
   5.7430       1581
   5.7616       1477
   5.7802       1577
   5.7988       1532
   5.8174       1467
   5.8359       1442
   5.8545       1473
   5.8731       1541
   5.8917       1449
   5.9102       1473
   5.9288       1491
   5.9474       1481
   5.9660       1410
   5.9845       1456
   6.0031       1407
   6.0217       1400
   6.0403       1451
   6.0588       1427
   6.0774       1363
   6.0960       1435
   6.1146       1398
   6.1331       1429
   6.1517       1421
   6.1703       1354
   6.1889       1401
   6.2075       1327
   6.2260       1360
   6.2446       1317
   6.2632       1415
   6.2818       1325
   6.3003       1429
   6.3189       1329
   6.3375       1317
   6.3561       1337
   6.3746       1345
   6.3932       1271
   6.4118       1250
   6.4304       1288
   6.4489       1315
   6.4675       1233
   6.4861       1354
   6.5047       1323
   6.5232       1310
   6.5418       1337
   6.5604       1280
   6.5790       1297
   6.5976       1244
   6.6161       1228
   6.6347       1202
   6.6533       1236
   6.6719       1315
   6.6904       1246
   6.7090       1230
   6.7276       1201
   6.7462       1113
   6.7647       1163
   6.7833       1205
   6.8019       1176
   6.8205       1155
   6.8390       1215
   6.8576       1169
   6.8762       1125
   6.8948       1180
   6.9133       1184
   6.9319       1181
   6.9505       1214
   6.9691       1195
   6.9877       1162
   7.0062       1142
   7.0248       1140
   7.0434       1126
   7.0620       1205
   7.0805       1095
   7.0991       1121
   7.1177       1152
   7.1363       1112
   7.1548       1143
   7.1734       1108
   7.1920       1116
   7.2106       1133
   7.2291       1125
   7.2477       1132
   7.2663       1122
   7.2849       1098
   7.3034       1082
   7.3220       1144
   7.3406       1191
   7.3592       1121
   7.3778       1110
   7.3963       1079
   7.4149       1122
   7.4335       1099
   7.4521       1085
   7.4706       1106
   7.4892       1114
   7.5078       1094
   7.5264       1104
   7.5449       1134
   7.5635       1085
   7.5821       1102
   7.6007       1104
   7.6192       1065
   7.6378       1105
   7.6564       1091
   7.6750       1069
   7.6935       1122
   7.7121       1133
   7.7307       1067
   7.7493       1095
   7.7679       1093
   7.7864       1067
   7.8050       1042
   7.8236       1068
   7.8422       1098
   7.8607       1156
   7.8793       1066
   7.8979       1122
   7.9165       1104
   7.9350       1088
   7.9536       1200
   7.9722       1175
   7.9908       1147
   8.0093       1125
   8.0279       1100
   8.0465       1037
   8.0651       1063
   8.0836       1165
   8.1022       1046
   8.1208       1094
   8.1394       1131
   8.1580       1088
   8.1765       1097
   8.1951       1123
   8.2137       1165
   8.2323       1136
   8.2508       1055
   8.2694       1061
   8.2880       1106
   8.3066       1099
   8.3251       1125
   8.3437       1064
   8.3623       1104
   8.3809       1063
   8.3994       1087
   8.4180        996
   8.4366       1108
   8.4552       1120
   8.4737       1092
   8.4923       1086
   8.5109       1063
   8.5295       1088
   8.5481       1079
   8.5666       1074
   8.5852       1083
   8.6038       1080
   8.6224       1136
   8.6409       1117
   8.6595       1107
   8.6781       1114
   8.6967       1130
   8.7152       1150
   8.7338       1164
   8.7524       1132
   8.7710       1078
   8.7895       1109
   8.8081       1122
   8.8267       1121
   8.8453       1109
   8.8638       1131
   8.8824       1084
   8.9010       1210
   8.9196       1086
   8.9382       1145
   8.9567       1125
   8.9753       1141
   8.9939       1093
   9.0125       1119
   9.0310       1114
   9.0496       1097
   9.0682       1146
   9.0868       1097
   9.1053       1062
   9.1239       1135
   9.1425       1039
   9.1611       1063
   9.1796       1041
   9.1982       1106
   9.2168       1111
   9.2354       1098
   9.2539       1035
   9.2725       1126
   9.2911       1116
   9.3097       1129
   9.3283       1097
   9.3468       1145
   9.3654       1082
   9.3840       1053
   9.4026       1051
   9.4211       1027
   9.4397       1021
   9.4583       1073
   9.4769       1106
   9.4954       1125
   9.5140       1095
   9.5326       1098
   9.5512       1021
   9.5697       1084
   9.5883       1157
   9.6069       1073
   9.6255       1020
   9.6441       1088
   9.6626       1087
   9.6812       1067
   9.6998       1189
   9.7184       1093
   9.7369       1120
   9.7555       1078
   9.7741       1109
   9.7927       1117
   9.8112       1072
   9.8298       1099
   9.8484       1142
   9.8670       1079
   9.8855       1152
   9.9041       1113
   9.9227       1088
   9.9413       1129
   9.9598       1060
   9.9784       1101
   9.9970       1070
  10.0156       1075
  10.0342       1066
  10.0527       1090
  10.0713       1076
  10.0899       1129
  10.1085       1060
  10.1270       1109
  10.1456       1085
  10.1642       1083
  10.1828       1057
  10.2013       1132
  10.2199       1105
  10.2385       1076
  10.2571       1099
  10.2756       1061
  10.2942       1076
  10.3128       1050
  10.3314       1021
  10.3499        993
  10.3685       1125
  10.3871       1067
  10.4057       1073
  10.4243       1100
  10.4428       1091
  10.4614       1025
  10.4800       1068
  10.4986       1005
  10.5171       1113
  10.5357       1007
  10.5543       1032
  10.5729       1101
  10.5914       1027
  10.6100       1027
  10.6286       1080
  10.6472       1029
  10.6657       1077
  10.6843       1015
  10.7029       1052
  10.7215       1027
  10.7400       1063
  10.7586       1047
  10.7772       1058
  10.7958       1052
  10.8144       1022
  10.8329       1086
  10.8515       1057
  10.8701       1002
  10.8887       1123
  10.9072        985
  10.9258       1024
  10.9444       1047
  10.9630       1062
  10.9815       1026
  11.0001       1062
  11.0187        989
  11.0373       1041
  11.0558       1037
  11.0744        948
  11.0930       1030
  11.1116        984
  11.1301        975
  11.1487       1006
  11.1673        997
  11.1859        980
  11.2045       1040
  11.2230        989
  11.2416       1014
  11.2602        983
  11.2788       1031
  11.2973        947
  11.3159       1030
  11.3345        988
  11.3531       1038
  11.3716       1002
  11.3902       1030
  11.4088       1015
  11.4274       1036
  11.4459       1014
  11.4645       1029
  11.4831        987
  11.5017        975
  11.5202       1042
  11.5388       1002
  11.5574       1031
  11.5760       1003
  11.5946        946
  11.6131        982
  11.6317        993
  11.6503        998
  11.6689        971
  11.6874        947
  11.7060        983
  11.7246        976
  11.7432       1021
  11.7617       1062
  11.7803        997
  11.7989       1040
  11.8175       1020
  11.8360       1089
  11.8546       1132
  11.8732       1305
  11.8918       1421
  11.9103       1462
  11.9289       1367
  11.9475       1182
  11.9661       1117
  11.9847       1019
  12.0032        979
  12.0218        938
  12.0404        976
  12.0590        893
  12.0775        997
  12.0961        962
  12.1147        922
  12.1333        916
  12.1518        937
  12.1704        955
  12.1890        972
  12.2076        931
  12.2261        932
  12.2447        943
  12.2633        935
  12.2819        908
  12.3004        926
  12.3190        912
  12.3376        908
  12.3562        992
  12.3748        940
  12.3933        928
  12.4119        881
  12.4305        883
  12.4491        965
  12.4676        872
  12.4862        884
  12.5048        870
  12.5234        866
  12.5419        961
  12.5605        937
  12.5791        900
  12.5977        905
  12.6162        920
  12.6348        870
  12.6534        870
  12.6720        913
  12.6905        901
  12.7091        877
  12.7277        939
  12.7463        917
  12.7649        868
  12.7834        872
  12.8020        869
  12.8206        900
  12.8392        902
  12.8577        870
  12.8763        847
  12.8949        887
  12.9135        916
  12.9320        814
  12.9506        823
  12.9692        879
  12.9878        906
  13.0063        908
  13.0249        889
  13.0435        816
  13.0621        865
  13.0806        880
  13.0992        818
  13.1178        855
  13.1364        878
  13.1550        902
  13.1735        845
  13.1921        827
  13.2107        844
  13.2293        856
  13.2478        865
  13.2664        811
  13.2850        830
  13.3036        869
  13.3221        863
  13.3407        816
  13.3593        841
  13.3779        823
  13.3964        834
  13.4150        834
  13.4336        874
  13.4522        806
  13.4707        845
  13.4893        842
  13.5079        806
  13.5265        834
  13.5451        849
  13.5636        838
  13.5822        816
  13.6008        796
  13.6194        803
  13.6379        795
  13.6565        809
  13.6751        826
  13.6937        826
  13.7122        788
  13.7308        778
  13.7494        802
  13.7680        797
  13.7865        804
  13.8051        764
  13.8237        872
  13.8423        830
  13.8608        835
  13.8794        792
  13.8980        817
  13.9166        772
  13.9352        800
  13.9537        779
  13.9723        778
  13.9909        831
  14.0095        855
  14.0280        785
  14.0466        798
  14.0652        758
  14.0838        696
  14.1023        823
  14.1209        768
  14.1395        781
  14.1581        829
  14.1766        739
  14.1952        800
  14.2138        765
  14.2324        786
  14.2509        763
  14.2695        755
  14.2881        792
  14.3067        745
  14.3253        753
  14.3438        785
  14.3624        771
  14.3810        795
  14.3996        760
  14.4181        733
  14.4367        751
  14.4553        815
  14.4739        764
  14.4924        768
  14.5110        764
  14.5296        782
  14.5482        759
  14.5667        797
  14.5853        761
  14.6039        760
  14.6225        775
  14.6410        800
  14.6596        714
  14.6782        771
  14.6968        795
  14.7154        771
  14.7339        775
  14.7525        760
  14.7711        749
  14.7897        742
  14.8082        800
  14.8268        698
  14.8454        745
  14.8640        716
  14.8825        778
  14.9011        719
  14.9197        761
  14.9383        762
  14.9568        740
  14.9754        729
  14.9940        756
  15.0126        773
  15.0311        747
  15.0497        732
  15.0683        724
  15.0869        788
  15.1055        764
  15.1240        751
  15.1426        729
  15.1612        726
  15.1798        731
  15.1983        752
  15.2169        701
  15.2355        793
  15.2541        755
  15.2726        790
  15.2912        725
  15.3098        751
  15.3284        749
  15.3469        709
  15.3655        745
  15.3841        765
  15.4027        746
  15.4212        711
  15.4398        766
  15.4584        728
  15.4770        749
  15.4956        715
  15.5141        761
  15.5327        747
  15.5513        719
  15.5699        734
  15.5884        773
  15.6070        756
  15.6256        748
  15.6442        737
  15.6627        734
  15.6813        722
  15.6999        760
  15.7185        731
  15.7370        776
  15.7556        709
  15.7742        720
  15.7928        679
  15.8113        732
  15.8299        771
  15.8485        756
  15.8671        791
  15.8857        730
  15.9042        718
  15.9228        820
  15.9414        681
  15.9600        676
  15.9785        716
  15.9971        733
  16.0157        723
  16.0343        758
  16.0528        717
  16.0714        737
  16.0900        738
  16.1086        728
  16.1271        714
  16.1457        759
  16.1643        766
  16.1829        719
  16.2014        761
  16.2200        760
  16.2386        737
  16.2572        734
  16.2758        704
  16.2943        739
  16.3129        714
  16.3315        706
  16.3501        720
  16.3686        744
  16.3872        721
  16.4058        757
  16.4244        769
  16.4429        749
  16.4615        777
  16.4801        771
  16.4987        752
  16.5172        713
  16.5358        740
  16.5544        800
  16.5730        754
  16.5915        669
  16.6101        764
  16.6287        754
  16.6473        708
  16.6659        748
  16.6844        688
  16.7030        704
  16.7216        710
  16.7402        689
  16.7587        667
  16.7773        769
  16.7959        723
  16.8145        714
  16.8330        727
  16.8516        732
  16.8702        722
  16.8888        754
  16.9073        781
  16.9259        728
  16.9445        751
  16.9631        742
  16.9816        739
  17.0002        729
  17.0188        723
  17.0374        712
  17.0560        706
  17.0745        732
  17.0931        741
  17.1117        695
  17.1303        754
  17.1488        681
  17.1674        702
  17.1860        708
  17.2046        737
  17.2231        747
  17.2417        740
  17.2603        703
  17.2789        670
  17.2974        744
  17.3160        712
  17.3346        693
  17.3532        699
  17.3717        721
  17.3903        739
  17.4089        699
  17.4275        734
  17.4461        723
  17.4646        719
  17.4832        707
  17.5018        675
  17.5204        698
  17.5389        717
  17.5575        763
  17.5761        705
  17.5947        815
  17.6132        734
  17.6318        745
  17.6504        720
  17.6690        715
  17.6875        724
  17.7061        771
  17.7247        703
  17.7433        760
  17.7618        727
  17.7804        747
  17.7990        738
  17.8176        753
  17.8362        739
  17.8547        761
  17.8733        708
  17.8919        745
  17.9105        764
  17.9290        720
  17.9476        789
  17.9662        718
  17.9848        740
  18.0033        740
  18.0219        760
  18.0405        717
  18.0591        734
  18.0776        714
  18.0962        723
  18.1148        743
  18.1334        695
  18.1519        731
  18.1705        732
  18.1891        734
  18.2077        714
  18.2263        779
  18.2448        743
  18.2634        735
  18.2820        765
  18.3006        702
  18.3191        750
  18.3377        708
  18.3563        706
  18.3749        702
  18.3934        720
  18.4120        761
  18.4306        795
  18.4492        763
  18.4677        811
  18.4863        837
  18.5049        918
  18.5235        869
  18.5420        789
  18.5606        772
  18.5792        812
  18.5978        755
  18.6164        725
  18.6349        716
  18.6535        759
  18.6721        743
  18.6907        728
  18.7092        736
  18.7278        762
  18.7464        777
  18.7650        755
  18.7835        740
  18.8021        727
  18.8207        729
  18.8393        721
  18.8578        718
  18.8764        746
  18.8950        757
  18.9136        738
  18.9322        714
  18.9507        746
  18.9693        725
  18.9879        732
  19.0065        734
  19.0250        719
  19.0436        754
  19.0622        790
  19.0808        784
  19.0993        701
  19.1179        702
  19.1365        770
  19.1551        731
  19.1736        755
  19.1922        752
  19.2108        722
  19.2294        669
  19.2479        734
  19.2665        759
  19.2851        744
  19.3037        770
  19.3223        752
  19.3408        739
  19.3594        723
  19.3780        714
  19.3966        735
  19.4151        733
  19.4337        713
  19.4523        764
  19.4709        714
  19.4894        756
  19.5080        751
  19.5266        733
  19.5452        788
  19.5637        757
  19.5823        736
  19.6009        749
  19.6195        729
  19.6380        707
  19.6566        764
  19.6752        770
  19.6938        781
  19.7124        735
  19.7309        737
  19.7495        802
  19.7681        769
  19.7867        795
  19.8052        766
  19.8238        758
  19.8424        789
  19.8610        738
  19.8795        710
  19.8981        694
  19.9167        722
  19.9353        758
  19.9538        726
  19.9724        754
  19.9910        749
  20.0096        752
  20.0281        761
  20.0467        750
  20.0653        771
  20.0839        777
  20.1025        769
  20.1210        781
  20.1396        777
  20.1582        675
  20.1768        734
  20.1953        734
  20.2139        714
  20.2325        769
  20.2511        765
  20.2696        796
  20.2882        744
  20.3068        711
  20.3254        778
  20.3439        691
  20.3625        749
  20.3811        768
  20.3997        747
  20.4182        734
  20.4368        679
  20.4554        699
  20.4740        692
  20.4926        725
  20.5111        750
  20.5297        764
  20.5483        746
  20.5669        781
  20.5854        768
  20.6040        698
  20.6226        698
  20.6412        725
  20.6597        703
  20.6783        740
  20.6969        810
  20.7155        740
  20.7340        751
  20.7526        770
  20.7712        731
  20.7898        788
  20.8083        730
  20.8269        776
  20.8455        734
  20.8641        754
  20.8827        739
  20.9012        730
  20.9198        832
  20.9384        736
  20.9570        712
  20.9755        737
  20.9941        791
  21.0127        740
  21.0313        729
  21.0498        797
  21.0684        767
  21.0870        735
  21.1056        742
  21.1241        813
  21.1427        754
  21.1613        811
  21.1799        836
  21.1984        845
  21.2170        861
  21.2356        881
  21.2542        824
  21.2728        852
  21.2913        767
  21.3099        828
  21.3285        767
  21.3471        719
  21.3656        811
  21.3842        751
  21.4028        770
  21.4214        781
  21.4399        780
  21.4585        748
  21.4771        774
  21.4957        784
  21.5142        740
  21.5328        754
  21.5514        710
  21.5700        815
  21.5885        800
  21.6071        748
  21.6257        757
  21.6443        736
  21.6629        732
  21.6814        747
  21.7000        726
  21.7186        740
  21.7372        743
  21.7557        750
  21.7743        780
  21.7929        777
  21.8115        780
  21.8300        770
  21.8486        754
  21.8672        782
  21.8858        739
  21.9043        832
  21.9229        796
  21.9415        805
  21.9601        859
  21.9786        944
  21.9972       1123
  22.0158       1045
  22.0344       1022
  22.0530       1010
  22.0715        932
  22.0901        839
  22.1087        835
  22.1273        778
  22.1458        798
  22.1644        803
  22.1830        837
  22.2016        784
  22.2201        762
  22.2387        728
  22.2573        819
  22.2759        774
  22.2944        785
  22.3130        829
  22.3316        827
  22.3502        779
  22.3687        779
  22.3873        763
  22.4059        802
  22.4245        837
  22.4431        840
  22.4616        876
  22.4802        934
  22.4988        918
  22.5174        841
  22.5359        887
  22.5545        884
  22.5731        875
  22.5917        818
  22.6102        811
  22.6288        808
  22.6474        864
  22.6660        933
  22.6845        989
  22.7031       1041
  22.7217       1193
  22.7403       1516
  22.7588       1886
  22.7774       2291
  22.7960       2244
  22.8146       2076
  22.8332       1840
  22.8517       1727
  22.8703       1466
  22.8889       1388
  22.9075       1278
  22.9260       1173
  22.9446       1163
  22.9632       1096
  22.9818       1040
  23.0003        972
  23.0189        850
  23.0375        870
  23.0561        857
  23.0746        793
  23.0932        811
  23.1118        841
  23.1304        748
  23.1489        786
  23.1675        777
  23.1861        746
  23.2047        797
  23.2233        753
  23.2418        796
  23.2604        776
  23.2790        757
  23.2976        802
  23.3161        761
  23.3347        747
  23.3533        803
  23.3719        806
  23.3904        714
  23.4090        761
  23.4276        766
  23.4462        825
  23.4647        756
  23.4833        799
  23.5019        865
  23.5205        888
  23.5390        857
  23.5576        913
  23.5762        858
  23.5948        856
  23.6134        830
  23.6319        826
  23.6505        864
  23.6691        843
  23.6877        894
  23.7062        958
  23.7248        884
  23.7434        933
  23.7620        906
  23.7805        895
  23.7991        886
  23.8177        843
  23.8363        836
  23.8548        875
  23.8734       1029
  23.8920       1203
  23.9106       1447
  23.9291       1646
  23.9477       1669
  23.9663       1526
  23.9849       1344
  24.0035       1163
  24.0220       1054
  24.0406        883
  24.0592        780
  24.0778        740
  24.0963        810
  24.1149        761
  24.1335        811
  24.1521        811
  24.1706        742
  24.1892        807
  24.2078        788
  24.2264        765
  24.2449        788
  24.2635        743
  24.2821        762
  24.3007        730
  24.3192        765
  24.3378        758
  24.3564        730
  24.3750        778
  24.3936        797
  24.4121        714
  24.4307        750
  24.4493        756
  24.4679        713
  24.4864        721
  24.5050        755
  24.5236        723
  24.5422        721
  24.5607        734
  24.5793        745
  24.5979        725
  24.6165        725
  24.6350        687
  24.6536        718
  24.6722        731
  24.6908        696
  24.7093        756
  24.7279        690
  24.7465        756
  24.7651        685
  24.7837        745
  24.8022        708
  24.8208        743
  24.8394        735
  24.8580        714
  24.8765        723
  24.8951        719
  24.9137        730
  24.9323        754
  24.9508        667
  24.9694        747
  24.9880        745
  25.0066        774
  25.0251        745
  25.0437        716
  25.0623        758
  25.0809        720
  25.0994        705
  25.1180        743
  25.1366        785
  25.1552        740
  25.1738        767
  25.1923        702
  25.2109        727
  25.2295        768
  25.2481        729
  25.2666        689
  25.2852        728
  25.3038        759
  25.3224        746
  25.3409        750
  25.3595        762
  25.3781        885
  25.3967        891
  25.4152        863
  25.4338        796
  25.4524        799
  25.4710        793
  25.4895        776
  25.5081        821
  25.5267        756
  25.5453        804
  25.5639        829
  25.5824        784
  25.6010        760
  25.6196        843
  25.6382        885
  25.6567        928
  25.6753        973
  25.6939        937
  25.7125        819
  25.7310        812
  25.7496        903
  25.7682        856
  25.7868        833
  25.8053        867
  25.8239        770
  25.8425        797
  25.8611        735
  25.8796        740
  25.8982        704
  25.9168        719
  25.9354        719
  25.9540        700
  25.9725        681
  25.9911        738
  26.0097        705
  26.0283        672
  26.0468        667
  26.0654        670
  26.0840        628
  26.1026        710
  26.1211        735
  26.1397        715
  26.1583        690
  26.1769        722
  26.1954        710
  26.2140        682
  26.2326        674
  26.2512        713
  26.2697        649
  26.2883        679
  26.3069        709
  26.3255        730
  26.3441        696
  26.3626        726
  26.3812        713
  26.3998        654
  26.4184        691
  26.4369        700
  26.4555        658
  26.4741        704
  26.4927        693
  26.5112        687
  26.5298        717
  26.5484        699
  26.5670        702
  26.5855        660
  26.6041        666
  26.6227        646
  26.6413        702
  26.6598        730
  26.6784        699
  26.6970        683
  26.7156        671
  26.7342        696
  26.7527        664
  26.7713        683
  26.7899        654
  26.8085        705
  26.8270        706
  26.8456        689
  26.8642        653
  26.8828        637
  26.9013        678
  26.9199        652
  26.9385        674
  26.9571        658
  26.9756        652
  26.9942        683
  27.0128        666
  27.0314        668
  27.0499        637
  27.0685        650
  27.0871        649
  27.1057        677
  27.1243        670
  27.1428        626
  27.1614        644
  27.1800        626
  27.1986        650
  27.2171        684
  27.2357        638
  27.2543        684
  27.2729        681
  27.2914        700
  27.3100        640
  27.3286        658
  27.3472        722
  27.3657        708
  27.3843        725
  27.4029        687
  27.4215        691
  27.4400        637
  27.4586        623
  27.4772        629
  27.4958        639
  27.5144        618
  27.5329        670
  27.5515        660
  27.5701        669
  27.5887        667
  27.6072        658
  27.6258        657
  27.6444        705
  27.6630        679
  27.6815        641
  27.7001        675
  27.7187        668
  27.7373        703
  27.7558        666
  27.7744        690
  27.7930        684
  27.8116        663
  27.8301        666
  27.8487        678
  27.8673        658
  27.8859        735
  27.9045        742
  27.9230        789
  27.9416        797
  27.9602       1014
  27.9788       1234
  27.9973       1394
  28.0159       1309
  28.0345       1277
  28.0531       1194
  28.0716       1195
  28.0902       1180
  28.1088        966
  28.1274        891
  28.1459        797
  28.1645        792
  28.1831        813
  28.2017        725
  28.2203        664
  28.2388        661
  28.2574        673
  28.2760        660
  28.2946        651
  28.3131        659
  28.3317        674
  28.3503        631
  28.3689        723
  28.3874        661
  28.4060        707
  28.4246        787
  28.4432        786
  28.4617        790
  28.4803        809
  28.4989        778
  28.5175        722
  28.5360        704
  28.5546        722
  28.5732        702
  28.5918        635
  28.6104        620
  28.6289        597
  28.6475        645
  28.6661        629
  28.6847        686
  28.7032        622
  28.7218        627
  28.7404        602
  28.7590        595
  28.7775        623
  28.7961        596
  28.8147        638
  28.8333        634
  28.8518        619
  28.8704        605
  28.8890        577
  28.9076        631
  28.9261        641
  28.9447        586
  28.9633        619
  28.9819        667
  29.0005        632
  29.0190        624
  29.0376        637
  29.0562        624
  29.0748        645
  29.0933        632
  29.1119        703
  29.1305        728
  29.1491        856
  29.1676        941
  29.1862        914
  29.2048        839
  29.2234        836
  29.2419        810
  29.2605        826
  29.2791        707
  29.2977        725
  29.3162        668
  29.3348        675
  29.3534        632
  29.3720        672
  29.3906        627
  29.4091        609
  29.4277        635
  29.4463        656
  29.4649        662
  29.4834        634
  29.5020        672
  29.5206        669
  29.5392        611
  29.5577        662
  29.5763        642
  29.5949        674
  29.6135        636
  29.6320        691
  29.6506        645
  29.6692        677
  29.6878        571
  29.7063        603
  29.7249        688
  29.7435        705
  29.7621        783
  29.7807        896
  29.7992        961
  29.8178       1295
  29.8364       1428
  29.8550       1291
  29.8735       1157
  29.8921       1110
  29.9107       1111
  29.9293        959
  29.9478        844
  29.9664        759
  29.9850        700
  30.0036        670
  30.0221        675
  30.0407        669
  30.0593        622
  30.0779        595
  30.0964        578
  30.1150        601
  30.1336        594
  30.1522        588
  30.1708        605
  30.1893        654
  30.2079        620
  30.2265        623
  30.2451        611
  30.2636        608
  30.2822        602
  30.3008        609
  30.3194        604
  30.3379        607
  30.3565        578
  30.3751        617
  30.3937        606
  30.4122        554
  30.4308        577
  30.4494        580
  30.4680        610
  30.4865        604
  30.5051        602
  30.5237        677
  30.5423        675
  30.5609        611
  30.5794        634
  30.5980        624
  30.6166        702
  30.6352        652
  30.6537        672
  30.6723        684
  30.6909        683
  30.7095        715
  30.7280        758
  30.7466        802
  30.7652        863
  30.7838        775
  30.8023        735
  30.8209        770
  30.8395        721
  30.8581        678
  30.8766        611
  30.8952        604
  30.9138        629
  30.9324        628
  30.9510        576
  30.9695        646
  30.9881        631
  31.0067        665
  31.0253        674
  31.0438        651
  31.0624        588
  31.0810        623
  31.0996        621
  31.1181        592
  31.1367        616
  31.1553        565
  31.1739        566
  31.1924        566
  31.2110        576
  31.2296        591
  31.2482        561
  31.2667        622
  31.2853        608
  31.3039        580
  31.3225        625
  31.3411        599
  31.3596        618
  31.3782        642
  31.3968        719
  31.4154        782
  31.4339        812
  31.4525        793
  31.4711        808
  31.4897        773
  31.5082        779
  31.5268        772
  31.5454        761
  31.5640        771
  31.5825        870
  31.6011       1005
  31.6197       1095
  31.6383       1117
  31.6568       1098
  31.6754       1018
  31.6940        869
  31.7126        913
  31.7312        886
  31.7497        782
  31.7683        719
  31.7869        635
  31.8055        636
  31.8240        578
  31.8426        610
  31.8612        578
  31.8798        649
  31.8983        639
  31.9169        622
  31.9355        578
  31.9541        653
  31.9726        604
  31.9912        621
  32.0098        659
  32.0284        742
  32.0469        877
  32.0655        912
  32.0841        906
  32.1027        980
  32.1213        896
  32.1398        846
  32.1584        870
  32.1770        863
  32.1956        789
  32.2141        758
  32.2327        748
  32.2513        745
  32.2699        710
  32.2884        768
  32.3070        790
  32.3256        889
  32.3442        851
  32.3627       1109
  32.3813       1312
  32.3999       1751
  32.4185       2106
  32.4370       2553
  32.4556       2432
  32.4742       2300
  32.4928       2231
  32.5114       2179
  32.5299       2001
  32.5485       1827
  32.5671       1464
  32.5857       1190
  32.6042       1033
  32.6228       1015
  32.6414        826
  32.6600        773
  32.6785        710
  32.6971        710
  32.7157        648
  32.7343        680
  32.7528        705
  32.7714        664
  32.7900        597
  32.8086        659
  32.8271        627
  32.8457        621
  32.8643        629
  32.8829        631
  32.9015        671
  32.9200        667
  32.9386        631
  32.9572        652
  32.9758        658
  32.9943        689
  33.0129        742
  33.0315        726
  33.0501        789
  33.0686        834
  33.0872        954
  33.1058        937
  33.1244       1003
  33.1429       1001
  33.1615       1122
  33.1801       1285
  33.1987       1464
  33.2172       2024
  33.2358       2892
  33.2544       4188
  33.2730       5220
  33.2916       5311
  33.3101       4460
  33.3287       3700
  33.3473       3473
  33.3659       3384
  33.3844       2766
  33.4030       2150
  33.4216       1538
  33.4402       1227
  33.4587       1002
  33.4773        927
  33.4959        854
  33.5145        737
  33.5330        688
  33.5516        647
  33.5702        684
  33.5888        689
  33.6073        609
  33.6259        648
  33.6445        618
  33.6631        608
  33.6817        599
  33.7002        591
  33.7188        563
  33.7374        546
  33.7560        563
  33.7745        527
  33.7931        574
  33.8117        571
  33.8303        521
  33.8488        533
  33.8674        551
  33.8860        573
  33.9046        534
  33.9231        546
  33.9417        614
  33.9603        553
  33.9789        570
  33.9974        573
  34.0160        580
  34.0346        492
  34.0532        574
  34.0718        529
  34.0903        537
  34.1089        511
  34.1275        503
  34.1461        602
  34.1646        488
  34.1832        511
  34.2018        492
  34.2204        498
  34.2389        502
  34.2575        497
  34.2761        504
  34.2947        514
  34.3132        524
  34.3318        541
  34.3504        501
  34.3690        516
  34.3875        508
  34.4061        496
  34.4247        472
  34.4433        517
  34.4619        490
  34.4804        489
  34.4990        506
  34.5176        508
  34.5362        483
  34.5547        514
  34.5733        486
  34.5919        511
  34.6105        524
  34.6290        512
  34.6476        537
  34.6662        544
  34.6848        549
  34.7033        554
  34.7219        500
  34.7405        525
  34.7591        490
  34.7776        515
  34.7962        442
  34.8148        480
  34.8334        523
  34.8520        504
  34.8705        483
  34.8891        489
  34.9077        509
  34.9263        468
  34.9448        497
  34.9634        461
  34.9820        454
  35.0006        487
  35.0191        504
  35.0377        496
  35.0563        472
  35.0749        514
  35.0934        497
  35.1120        461
  35.1306        503
  35.1492        517
  35.1677        524
  35.1863        510
  35.2049        524
  35.2235        480
  35.2421        501
  35.2606        511
  35.2792        494
  35.2978        533
  35.3164        537
  35.3349        522
  35.3535        501
  35.3721        511
  35.3907        584
  35.4092        581
  35.4278        580
  35.4464        644
  35.4650        691
  35.4835        711
  35.5021        772
  35.5207        751
  35.5393        814
  35.5578        928
  35.5764        865
  35.5950        723
  35.6136        713
  35.6322        637
  35.6507        662
  35.6693        624
  35.6879        591
  35.7065        538
  35.7250        531
  35.7436        507
  35.7622        556
  35.7808        495
  35.7993        509
  35.8179        526
  35.8365        466
  35.8551        529
  35.8736        507
  35.8922        471
  35.9108        467
  35.9294        475
  35.9479        487
  35.9665        464
  35.9851        480
  36.0037        465
  36.0223        511
  36.0408        449
  36.0594        486
  36.0780        504
  36.0966        461
  36.1151        476
  36.1337        443
  36.1523        481
  36.1709        530
  36.1894        565
  36.2080        616
  36.2266        644
  36.2452        735
  36.2637        829
  36.2823        801
  36.3009        756
  36.3195        738
  36.3380        719
  36.3566        678
  36.3752        716
  36.3938        678
  36.4124        702
  36.4309        674
  36.4495        593
  36.4681        615
  36.4867        561
  36.5052        577
  36.5238        583
  36.5424        574
  36.5610        565
  36.5795        499
  36.5981        487
  36.6167        458
  36.6353        477
  36.6538        485
  36.6724        503
  36.6910        484
  36.7096        442
  36.7281        437
  36.7467        437
  36.7653        450
  36.7839        437
  36.8025        444
  36.8210        461
  36.8396        456
  36.8582        452
  36.8768        469
  36.8953        433
  36.9139        460
  36.9325        477
  36.9511        456
  36.9696        438
  36.9882        446
  37.0068        437
  37.0254        433
  37.0439        476
  37.0625        408
  37.0811        421
  37.0997        443
  37.1182        406
  37.1368        419
  37.1554        401
  37.1740        434
  37.1926        413
  37.2111        418
  37.2297        462
  37.2483        445
  37.2669        478
  37.2854        463
  37.3040        439
  37.3226        428
  37.3412        444
  37.3597        434
  37.3783        429
  37.3969        435
  37.4155        446
  37.4340        428
  37.4526        454
  37.4712        494
  37.4898        495
  37.5084        455
  37.5269        444
  37.5455        436
  37.5641        424
  37.5827        461
  37.6012        435
  37.6198        470
  37.6384        406
  37.6570        450
  37.6755        480
  37.6941        458
  37.7127        428
  37.7313        446
  37.7498        461
  37.7684        481
  37.7870        469
  37.8056        480
  37.8241        429
  37.8427        468
  37.8613        477
  37.8799        465
  37.8985        463
  37.9170        456
  37.9356        497
  37.9542        474
  37.9728        427
  37.9913        502
  38.0099        498
  38.0285        472
  38.0471        497
  38.0656        494
  38.0842        494
  38.1028        458
  38.1214        483
  38.1399        492
  38.1585        439
  38.1771        453
  38.1957        466
  38.2142        465
  38.2328        463
  38.2514        431
  38.2700        456
  38.2886        424
  38.3071        462
  38.3257        449
  38.3443        464
  38.3629        420
  38.3814        477
  38.4000        465
  38.4186        466
  38.4372        464
  38.4557        477
  38.4743        477
  38.4929        504
  38.5115        472
  38.5300        492
  38.5486        485
  38.5672        506
  38.5858        504
  38.6043        514
  38.6229        543
  38.6415        527
  38.6601        522
  38.6787        531
  38.6972        595
  38.7158        599
  38.7344        627
  38.7530        705
  38.7715        694
  38.7901        701
  38.8087        672
  38.8273        615
  38.8458        617
  38.8644        610
  38.8830        583
  38.9016        606
  38.9201        547
  38.9387        478
  38.9573        475
  38.9759        511
  38.9944        513
  39.0130        523
  39.0316        503
  39.0502        464
  39.0688        479
  39.0873        472
  39.1059        513
  39.1245        468
  39.1431        419
  39.1616        473
  39.1802        411
  39.1988        452
  39.2174        446
  39.2359        429
  39.2545        455
  39.2731        427
  39.2917        436
  39.3102        379
  39.3288        430
  39.3474        430
  39.3660        429
  39.3845        423
  39.4031        449
  39.4217        423
  39.4403        421
  39.4589        461
  39.4774        425
  39.4960        425
  39.5146        428
  39.5332        403
  39.5517        440
  39.5703        465
  39.5889        446
  39.6075        442
  39.6260        417
  39.6446        428
  39.6632        430
  39.6818        424
  39.7003        415
  39.7189        440
  39.7375        426
  39.7561        459
  39.7746        473
  39.7932        495
  39.8118        506
  39.8304        562
  39.8490        519
  39.8675        452
  39.8861        488
  39.9047        499
  39.9233        476
  39.9418        452
  39.9604        500
  39.9790        435
  39.9976        427
  40.0161        429
  40.0347        428
  40.0533        438
  40.0719        429
  40.0904        453
  40.1090        456
  40.1276        450
  40.1462        443
  40.1647        392
  40.1833        442
  40.2019        420
  40.2205        409
  40.2391        449
  40.2576        464
  40.2762        436
  40.2948        414
  40.3134        439
  40.3319        474
  40.3505        472
  40.3691        421
  40.3877        466
  40.4062        474
  40.4248        475
  40.4434        471
  40.4620        427
  40.4805        489
  40.4991        543
  40.5177        500
  40.5363        519
  40.5548        546
  40.5734        551
  40.5920        584
  40.6106        675
  40.6292        780
  40.6477        871
  40.6663       1253
  40.6849       1535
  40.7035       1661
  40.7220       1582
  40.7406       1416
  40.7592       1313
  40.7778       1260
  40.7963       1256
  40.8149       1192
  40.8335       1036
  40.8521        916
  40.8706        760
  40.8892        707
  40.9078        585
  40.9264        580
  40.9449        540
  40.9635        494
  40.9821        474
  41.0007        500
  41.0193        493
  41.0378        485
  41.0564        466
  41.0750        442
  41.0936        437
  41.1121        434
  41.1307        426
  41.1493        463
  41.1679        437
  41.1864        380
  41.2050        459
  41.2236        418
  41.2422        386
  41.2607        424
  41.2793        442
  41.2979        389
  41.3165        472
  41.3350        425
  41.3536        405
  41.3722        428
  41.3908        415
  41.4094        433
  41.4279        428
  41.4465        388
  41.4651        410
  41.4837        413
  41.5022        424
  41.5208        407
  41.5394        419
  41.5580        399
  41.5765        391
  41.5951        398
  41.6137        449
  41.6323        409
  41.6508        412
  41.6694        432
  41.6880        453
  41.7066        394
  41.7251        435
  41.7437        422
  41.7623        420
  41.7809        416
  41.7995        438
  41.8180        427
  41.8366        395
  41.8552        438
  41.8738        444
  41.8923        438
  41.9109        407
  41.9295        411
  41.9481        425
  41.9666        398
  41.9852        400
  42.0038        424
  42.0224        446
  42.0409        411
  42.0595        382
  42.0781        465
  42.0967        425
  42.1152        450
  42.1338        427
  42.1524        475
  42.1710        435
  42.1896        458
  42.2081        479
  42.2267        479
  42.2453        542
  42.2639        544
  42.2824        543
  42.3010        507
  42.3196        514
  42.3382        507
  42.3567        469
  42.3753        503
  42.3939        468
  42.4125        510
  42.4310        484
  42.4496        446
  42.4682        494
  42.4868        417
  42.5053        421
  42.5239        454
  42.5425        448
  42.5611        422
  42.5797        456
  42.5982        419
  42.6168        434
  42.6354        434
  42.6540        410
  42.6725        423
  42.6911        434
  42.7097        385
  42.7283        408
  42.7468        416
  42.7654        394
  42.7840        395
  42.8026        434
  42.8211        421
  42.8397        451
  42.8583        410
  42.8769        435
  42.8954        403
  42.9140        420
  42.9326        401
  42.9512        407
  42.9698        400
  42.9883        387
  43.0069        431
  43.0255        369
  43.0441        478
  43.0626        415
  43.0812        457
  43.0998        415
  43.1184        417
  43.1369        448
  43.1555        435
  43.1741        497
  43.1927        575
  43.2112        611
  43.2298        608
  43.2484        578
  43.2670        528
  43.2855        586
  43.3041        547
  43.3227        551
  43.3413        551
  43.3599        531
  43.3784        491
  43.3970        498
  43.4156        469
  43.4342        458
  43.4527        460
  43.4713        425
  43.4899        446
  43.5085        443
  43.5270        419
  43.5456        427
  43.5642        387
  43.5828        406
  43.6013        409
  43.6199        413
  43.6385        388
  43.6571        390
  43.6756        387
  43.6942        434
  43.7128        434
  43.7314        446
  43.7500        399
  43.7685        420
  43.7871        393
  43.8057        412
  43.8243        423
  43.8428        410
  43.8614        415
  43.8800        433
  43.8986        418
  43.9171        408
  43.9357        417
  43.9543        438
  43.9729        450
  43.9914        457
  44.0100        491
  44.0286        520
  44.0472        523
  44.0657        515
  44.0843        527
  44.1029        463
  44.1215        440
  44.1401        506
  44.1586        426
  44.1772        475
  44.1958        414
  44.2144        413
  44.2329        425
  44.2515        411
  44.2701        398
  44.2887        444
  44.3072        435
  44.3258        389
  44.3444        454
  44.3630        390
  44.3815        420
  44.4001        438
  44.4187        422
  44.4373        417
  44.4558        459
  44.4744        458
  44.4930        452
  44.5116        442
  44.5302        428
  44.5487        456
  44.5673        473
  44.5859        450
  44.6045        429
  44.6230        442
  44.6416        436
  44.6602        458
  44.6788        453
  44.6973        455
  44.7159        468
  44.7345        474
  44.7531        427
  44.7716        437
  44.7902        441
  44.8088        451
  44.8274        486
  44.8459        494
  44.8645        519
  44.8831        545
  44.9017        481
  44.9203        425
  44.9388        483
  44.9574        485
  44.9760        493
  44.9946        455
  45.0131        419
  45.0317        514
  45.0503        478
  45.0689        515
  45.0874        533
  45.1060        510
  45.1246        482
  45.1432        467
  45.1617        465
  45.1803        503
  45.1989        447
  45.2175        456
  45.2360        414
  45.2546        419
  45.2732        426
  45.2918        408
  45.3104        353
  45.3289        438
  45.3475        401
  45.3661        422
  45.3847        409
  45.4032        408
  45.4218        416
  45.4404        410
  45.4590        403
  45.4775        424
  45.4961        412
  45.5147        423
  45.5333        446
  45.5518        421
  45.5704        438
  45.5890        422
  45.6076        409
  45.6261        443
  45.6447        407
  45.6633        451
  45.6819        419
  45.7005        452
  45.7190        432
  45.7376        491
  45.7562        476
  45.7748        452
  45.7933        429
  45.8119        485
  45.8305        509
  45.8491        560
  45.8676        506
  45.8862        512
  45.9048        542
  45.9234        526
  45.9419        552
  45.9605        582
  45.9791        679
  45.9977        701
  46.0162        736
  46.0348        662
  46.0534        621
  46.0720        622
  46.0906        548
  46.1091        645
  46.1277        616
  46.1463        543
  46.1649        531
  46.1834        536
  46.2020        501
  46.2206        473
  46.2392        478
  46.2577        465
  46.2763        482
  46.2949        483
  46.3135        492
  46.3320        475
  46.3506        505
  46.3692        521
  46.3878        539
  46.4063        558
  46.4249        650
  46.4435        657
  46.4621        859
  46.4807        993
  46.4992       1186
  46.5178       1314
  46.5364       1343
  46.5550       1109
  46.5735       1190
  46.5921       1080
  46.6107       1032
  46.6293        998
  46.6478        949
  46.6664        906
  46.6850        772
  46.7036        759
  46.7221        706
  46.7407        595
  46.7593        568
  46.7779        586
  46.7965        492
  46.8150        518
  46.8336        496
  46.8522        536
  46.8708        486
  46.8893        446
  46.9079        475
  46.9265        474
  46.9451        435
  46.9636        442
  46.9822        436
  47.0008        492
  47.0194        458
  47.0379        440
  47.0565        441
  47.0751        473
  47.0937        427
  47.1122        446
  47.1308        464
  47.1494        452
  47.1680        418
  47.1866        445
  47.2051        441
  47.2237        421
  47.2423        446
  47.2609        393
  47.2794        445
  47.2980        434
  47.3166        409
  47.3352        409
  47.3537        397
  47.3723        404
  47.3909        431
  47.4095        437
  47.4280        465
  47.4466        469
  47.4652        471
  47.4838        428
  47.5023        403
  47.5209        440
  47.5395        427
  47.5581        417
  47.5767        459
  47.5952        437
  47.6138        433
  47.6324        420
  47.6510        402
  47.6695        395
  47.6881        419
  47.7067        423
  47.7253        412
  47.7438        419
  47.7624        370
  47.7810        416
  47.7996        481
  47.8181        423
  47.8367        467
  47.8553        476
  47.8739        489
  47.8924        429
  47.9110        457
  47.9296        408
  47.9482        463
  47.9668        472
  47.9853        427
  48.0039        424
  48.0225        406
  48.0411        396
  48.0596        428
  48.0782        389
  48.0968        455
  48.1154        479
  48.1339        466
  48.1525        486
  48.1711        478
  48.1897        517
  48.2082        532
  48.2268        498
  48.2454        485
  48.2640        506
  48.2825        517
  48.3011        484
  48.3197        466
  48.3383        461
  48.3569        446
  48.3754        427
  48.3940        414
  48.4126        409
  48.4312        404
  48.4497        383
  48.4683        416
  48.4869        401
  48.5055        452
  48.5240        400
  48.5426        442
  48.5612        408
  48.5798        396
  48.5983        382
  48.6169        453
  48.6355        433
  48.6541        451
  48.6726        471
  48.6912        456
  48.7098        478
  48.7284        444
  48.7470        486
  48.7655        487
  48.7841        482
  48.8027        483
  48.8213        470
  48.8398        487
  48.8584        482
  48.8770        519
  48.8956        545
  48.9141        576
  48.9327        611
  48.9513        802
  48.9699        875
  48.9884        950
  49.0070        952
  49.0256        849
  49.0442        725
  49.0627        672
  49.0813        639
  49.0999        757
  49.1185        761
  49.1371        693
  49.1556        684
  49.1742        594
  49.1928        555
  49.2114        541
  49.2299        466
  49.2485        471
  49.2671        491
  49.2857        464
  49.3042        481
  49.3228        455
  49.3414        437
  49.3600        470
  49.3785        462
  49.3971        476
  49.4157        449
  49.4343        481
  49.4528        498
  49.4714        535
  49.4900        520
  49.5086        477
  49.5272        566
  49.5457        534
  49.5643        472
  49.5829        465
  49.6015        468
  49.6200        473
  49.6386        489
  49.6572        483
  49.6758        447
  49.6943        425
  49.7129        408
  49.7315        397
  49.7501        386
  49.7686        369
  49.7872        418
  49.8058        386
  49.8244        443
  49.8429        410
  49.8615        376
  49.8801        412
  49.8987        379
  49.9173        429
  49.9358        394
  49.9544        390
  49.9730        433
  49.9916        434
  50.0101        440
  50.0287        449
  50.0473        466
  50.0659        442
  50.0844        420
  50.1030        416
  50.1216        446
  50.1402        405
  50.1587        424
  50.1773        476
  50.1959        485
  50.2145        495
  50.2330        528
  50.2516        509
  50.2702        419
  50.2888        464
  50.3074        396
  50.3259        431
  50.3445        460
  50.3631        444
  50.3817        436
  50.4002        448
  50.4188        383
  50.4374        394
  50.4560        375
  50.4745        381
  50.4931        365
  50.5117        385
  50.5303        398
  50.5488        416
  50.5674        410
  50.5860        417
  50.6046        385
  50.6231        446
  50.6417        443
  50.6603        408
  50.6789        371
  50.6975        416
  50.7160        376
  50.7346        413
  50.7532        395
  50.7718        366
  50.7903        376
  50.8089        362
  50.8275        353
  50.8461        379
  50.8646        387
  50.8832        392
  50.9018        404
  50.9204        387
  50.9389        404
  50.9575        373
  50.9761        403
  50.9947        383
  51.0132        401
  51.0318        418
  51.0504        446
  51.0690        423
  51.0876        409
  51.1061        416
  51.1247        417
  51.1433        447
  51.1619        421
  51.1804        435
  51.1990        422
  51.2176        389
  51.2362        406
  51.2547        395
  51.2733        414
  51.2919        421
  51.3105        378
  51.3290        427
  51.3476        378
  51.3662        402
  51.3848        380
  51.4033        351
  51.4219        379
  51.4405        399
  51.4591        372
  51.4777        401
  51.4962        437
  51.5148        402
  51.5334        392
  51.5520        374
  51.5705        448
  51.5891        397
  51.6077        470
  51.6263        532
  51.6448        541
  51.6634        526
  51.6820        551
  51.7006        487
  51.7191        465
  51.7377        437
  51.7563        459
  51.7749        487
  51.7934        502
  51.8120        469
  51.8306        479
  51.8492        436
  51.8678        423
  51.8863        450
  51.9049        438
  51.9235        455
  51.9421        436
  51.9606        426
  51.9792        373
  51.9978        415
  52.0164        404
  52.0349        419
  52.0535        431
  52.0721        390
  52.0907        413
  52.1092        416
  52.1278        418
  52.1464        407
  52.1650        397
  52.1835        396
  52.2021        430
  52.2207        410
  52.2393        410
  52.2579        482
  52.2764        430
  52.2950        420
  52.3136        506
  52.3322        507
  52.3507        575
  52.3693        597
  52.3879        690
  52.4065        722
  52.4250        730
  52.4436        687
  52.4622        631
  52.4808        642
  52.4993        522
  52.5179        581
  52.5365        586
  52.5551        593
  52.5736        580
  52.5922        537
  52.6108        500
  52.6294        499
  52.6480        407
  52.6665        428
  52.6851        459
  52.7037        421
  52.7223        437
  52.7408        438
  52.7594        440
  52.7780        410
  52.7966        432
  52.8151        400
  52.8337        407
  52.8523        419
  52.8709        413
  52.8894        418
  52.9080        508
  52.9266        547
  52.9452        615
  52.9637        637
  52.9823        676
  53.0009        653
  53.0195        653
  53.0381        626
  53.0566        576
  53.0752        593
  53.0938        568
  53.1124        561
  53.1309        536
  53.1495        525
  53.1681        517
  53.1867        494
  53.2052        520
  53.2238        454
  53.2424        440
  53.2610        436
  53.2795        436
  53.2981        423
  53.3167        414
  53.3353        413
  53.3538        382
  53.3724        401
  53.3910        395
  53.4096        394
  53.4282        393
  53.4467        381
  53.4653        389
  53.4839        370
  53.5025        417
  53.5210        439
  53.5396        426
  53.5582        414
  53.5768        407
  53.5953        361
  53.6139        402
  53.6325        402
  53.6511        409
  53.6696        422
  53.6882        367
  53.7068        399
  53.7254        383
  53.7439        396
  53.7625        370
  53.7811        375
  53.7997        384
  53.8183        357
  53.8368        383
  53.8554        373
  53.8740        394
  53.8926        376
  53.9111        407
  53.9297        429
  53.9483        448
  53.9669        437
  53.9854        403
  54.0040        426
  54.0226        415
  54.0412        429
  54.0597        389
  54.0783        402
  54.0969        438
  54.1155        400
  54.1340        394
  54.1526        370
  54.1712        391
  54.1898        402
  54.2084        378
  54.2269        400
  54.2455        416
  54.2641        382
  54.2827        390
  54.3012        381
  54.3198        356
  54.3384        389
  54.3570        417
  54.3755        363
  54.3941        394
  54.4127        371
  54.4313        398
  54.4498        418
  54.4684        429
  54.4870        413
  54.5056        392
  54.5241        423
  54.5427        436
  54.5613        472
  54.5799        466
  54.5985        481
  54.6170        551
  54.6356        599
  54.6542        778
  54.6728        758
  54.6913        731
  54.7099        669
  54.7285        616
  54.7471        558
  54.7656        511
  54.7842        538
  54.8028        718
  54.8214        670
  54.8399        606
  54.8585        545
  54.8771        522
  54.8957        480
  54.9142        466
  54.9328        448
  54.9514        447
  54.9700        403
  54.9886        424
  55.0071        364
  55.0257        410
  55.0443        397
  55.0629        387
  55.0814        390
  55.1000        380
  55.1186        379
  55.1372        363
  55.1557        379
  55.1743        385
  55.1929        364
  55.2115        361
  55.2300        362
  55.2486        334
  55.2672        375
  55.2858        368
  55.3043        355
  55.3229        354
  55.3415        352
  55.3601        342
  55.3787        370
  55.3972        408
  55.4158        380
  55.4344        383
  55.4530        367
  55.4715        375
  55.4901        364
  55.5087        377
  55.5273        349
  55.5458        368
  55.5644        387
  55.5830        338
  55.6016        381
  55.6201        351
  55.6387        379
  55.6573        382
  55.6759        333
  55.6944        401
  55.7130        401
  55.7316        366
  55.7502        381
  55.7688        363
  55.7873        402
  55.8059        353
  55.8245        364
  55.8431        372
  55.8616        379
  55.8802        358
  55.8988        384
  55.9174        389
  55.9359        379
  55.9545        395
  55.9731        375
  55.9917        368
  56.0102        402
  56.0288        385
  56.0474        447
  56.0660        453
  56.0846        429
  56.1031        370
  56.1217        386
  56.1403        420
  56.1589        406
  56.1774        400
  56.1960        433
  56.2146        389
  56.2332        394
  56.2517        432
  56.2703        340
  56.2889        405
  56.3075        382
  56.3260        354
  56.3446        356
  56.3632        395
  56.3818        378
  56.4003        372
  56.4189        381
  56.4375        355
  56.4561        369
  56.4747        416
  56.4932        353
  56.5118        382
  56.5304        353
  56.5490        362
  56.5675        394
  56.5861        377
  56.6047        360
  56.6233        380
  56.6418        376
  56.6604        402
  56.6790        397
  56.6976        363
  56.7161        415
  56.7347        378
  56.7533        411
  56.7719        396
  56.7904        459
  56.8090        446
  56.8276        476
  56.8462        505
  56.8648        469
  56.8833        503
  56.9019        556
  56.9205        562
  56.9391        526
  56.9576        489
  56.9762        458
  56.9948        525
  57.0134        461
  57.0319        457
  57.0505        487
  57.0691        511
  57.0877        457
  57.1062        401
  57.1248        401
  57.1434        400
  57.1620        407
  57.1805        429
  57.1991        382
  57.2177        406
  57.2363        391
  57.2549        395
  57.2734        415
  57.2920        377
  57.3106        391
  57.3292        372
  57.3477        349
  57.3663        407
  57.3849        405
  57.4035        364
  57.4220        335
  57.4406        394
  57.4592        413
  57.4778        427
  57.4963        362
  57.5149        397
  57.5335        387
  57.5521        366
  57.5706        384
  57.5892        382
  57.6078        426
  57.6264        408
  57.6450        401
  57.6635        388
  57.6821        440
  57.7007        399
  57.7193        363
  57.7378        401
  57.7564        436
  57.7750        352
  57.7936        414
  57.8121        405
  57.8307        423
  57.8493        408
  57.8679        416
  57.8864        394
  57.9050        390
  57.9236        454
  57.9422        424
  57.9607        425
  57.9793        442
  57.9979        436
  58.0165        422
  58.0351        411
  58.0536        410
  58.0722        441
  58.0908        463
  58.1094        486
  58.1279        446
  58.1465        487
  58.1651        482
  58.1837        492
  58.2022        489
  58.2208        521
  58.2394        523
  58.2580        607
  58.2765        598
  58.2951        667
  58.3137        834
  58.3323        931
  58.3508       1075
  58.3694       1198
  58.3880       1267
  58.4066       1290
  58.4252       1261
  58.4437       1138
  58.4623       1143
  58.4809       1051
  58.4995       1026
  58.5180        988
  58.5366        993
  58.5552        918
  58.5738        892
  58.5923        912
  58.6109        749
  58.6295        714
  58.6481        659
  58.6666        605
  58.6852        519
  58.7038        512
  58.7224        440
  58.7409        470
  58.7595        432
  58.7781        421
  58.7967        442
  58.8153        409
  58.8338        389
  58.8524        464
  58.8710        399
  58.8896        394
  58.9081        414
  58.9267        362
  58.9453        400
  58.9639        373
  58.9824        394
  59.0010        376
  59.0196        418
  59.0382        400
  59.0567        404
  59.0753        352
  59.0939        401
  59.1125        396
  59.1310        400
  59.1496        381
  59.1682        365
  59.1868        389
  59.2054        403
  59.2239        397
  59.2425        378
  59.2611        372
  59.2797        388
  59.2982        356
  59.3168        338
  59.3354        377
  59.3540        388
  59.3725        390
  59.3911        378
  59.4097        393
  59.4283        368
  59.4468        366
  59.4654        376
  59.4840        378
  59.5026        372
  59.5211        389
  59.5397        363
  59.5583        383
  59.5769        378
  59.5955        393
  59.6140        393
  59.6326        411
  59.6512        436
  59.6698        392
  59.6883        430
  59.7069        413
  59.7255        418
  59.7441        430
  59.7626        421
  59.7812        447
  59.7998        455
  59.8184        452
  59.8369        482
  59.8555        507
  59.8741        498
  59.8927        571
  59.9112        631
  59.9298        724
  59.9484        904
  59.9670       1022
