   5.0000       1716
   5.0186       1742
   5.0372       1654
   5.0557       1615
   5.0743       1647
   5.0929       1640
   5.1115       1611
   5.1300       1678
   5.1486       1618
   5.1672       1637
   5.1858       1609
   5.2043       1529
   5.2229       1674
   5.2415       1655
   5.2601       1605
   5.2786       1527
   5.2972       1519
   5.3158       1567
   5.3344       1542
   5.3529       1527
   5.3715       1528
   5.3901       1527
   5.4087       1465
   5.4273       1512
   5.4458       1503
   5.4644       1495
   5.4830       1503
   5.5016       1447
   5.5201       1469
   5.5387       1463
   5.5573       1463
   5.5759       1360
   5.5944       1401
   5.6130       1385
   5.6316       1348
   5.6502       1375
   5.6687       1423
   5.6873       1369
   5.7059       1331
   5.7245       1301
   5.7430       1347
   5.7616       1320
   5.7802       1290
   5.7988       1341
   5.8174       1338
   5.8359       1355
   5.8545       1333
   5.8731       1266
   5.8917       1262
   5.9102       1244
   5.9288       1291
   5.9474       1233
   5.9660       1182
   5.9845       1225
   6.0031       1283
   6.0217       1274
   6.0403       1258
   6.0588       1252
   6.0774       1246
   6.0960       1140
   6.1146       1189
   6.1331       1169
   6.1517       1205
   6.1703       1203
   6.1889       1226
   6.2075       1211
   6.2260       1202
   6.2446       1150
   6.2632       1162
   6.2818       1202
   6.3003       1210
   6.3189       1199
   6.3375       1132
   6.3561       1165
   6.3746       1142
   6.3932       1197
   6.4118       1126
   6.4304       1163
   6.4489       1192
   6.4675       1161
   6.4861       1127
   6.5047       1163
   6.5232       1148
   6.5418       1089
   6.5604       1102
   6.5790       1129
   6.5976       1071
   6.6161       1049
   6.6347       1067
   6.6533       1102
   6.6719       1088
   6.6904       1048
   6.7090       1046
   6.7276       1045
   6.7462       1048
   6.7647        994
   6.7833       1079
   6.8019       1091
   6.8205       1075
   6.8390       1033
   6.8576        990
   6.8762        992
   6.8948        975
   6.9133       1029
   6.9319       1041
   6.9505       1017
   6.9691       1003
   6.9877       1021
   7.0062        925
   7.0248       1028
   7.0434        980
   7.0620        956
   7.0805        929
   7.0991        965
   7.1177        940
   7.1363        955
   7.1548        985
   7.1734        975
   7.1920       1001
   7.2106       1025
   7.2291        945
   7.2477        971
   7.2663        943
   7.2849        983
   7.3034        922
   7.3220        953
   7.3406        963
   7.3592        986
   7.3778        958
   7.3963        926
   7.4149        966
   7.4335        979
   7.4521        991
   7.4706        915
   7.4892       1024
   7.5078        983
   7.5264       1018
   7.5449        922
   7.5635        965
   7.5821       1005
   7.6007        938
   7.6192        997
   7.6378        989
   7.6564        980
   7.6750       1020
   7.6935        973
   7.7121        956
   7.7307        992
   7.7493        983
   7.7679       1031
   7.7864       1078
   7.8050       1072
   7.8236       1102
   7.8422       1126
   7.8607       1245
   7.8793       1202
   7.8979       1374
   7.9165       1463
   7.9350       1645
   7.9536       1891
   7.9722       2190
   7.9908       2567
   8.0093       3203
   8.0279       4048
   8.0465       5138
   8.0651       5538
   8.0836       5298
   8.1022       4356
   8.1208       3033
   8.1394       2298
   8.1580       1707
   8.1765       1423
   8.1951       1361
   8.2137       1210
   8.2323       1119
   8.2508       1143
   8.2694       1041
   8.2880       1066
   8.3066       1092
   8.3251       1014
   8.3437       1023
   8.3623       1000
   8.3809        943
   8.3994        914
   8.4180        977
   8.4366        973
   8.4552        948
   8.4737        969
   8.4923        977
   8.5109        937
   8.5295        943
   8.5481        935
   8.5666        981
   8.5852        982
   8.6038        937
   8.6224        949
   8.6409        889
   8.6595        936
   8.6781        971
   8.6967        937
   8.7152        960
   8.7338        883
   8.7524        940
   8.7710        972
   8.7895        939
   8.8081        927
   8.8267        893
   8.8453        895
   8.8638        882
   8.8824        931
   8.9010        966
   8.9196        930
   8.9382        940
   8.9567        968
   8.9753        944
   8.9939        855
   9.0125        916
   9.0310        919
   9.0496        911
   9.0682        894
   9.0868        899
   9.1053        948
   9.1239        951
   9.1425        898
   9.1611        926
   9.1796        881
   9.1982        873
   9.2168        924
   9.2354        919
   9.2539        874
   9.2725        859
   9.2911        886
   9.3097        867
   9.3283        856
   9.3468        926
   9.3654        899
   9.3840        898
   9.4026        915
   9.4211        896
   9.4397        832
   9.4583        864
   9.4769        902
   9.4954        833
   9.5140        878
   9.5326        864
   9.5512        891
   9.5697        888
   9.5883        844
   9.6069        871
   9.6255        875
   9.6441        892
   9.6626        878
   9.6812        881
   9.6998        905
   9.7184        866
   9.7369        800
   9.7555        874
   9.7741        882
   9.7927        849
   9.8112        836
   9.8298        851
   9.8484        876
   9.8670        851
   9.8855        866
   9.9041        838
   9.9227        850
   9.9413        870
   9.9598        891
   9.9784        852
   9.9970        843
  10.0156        870
  10.0342        859
  10.0527        860
  10.0713        801
  10.0899        877
  10.1085        852
  10.1270        889
  10.1456        857
  10.1642        834
  10.1828        861
  10.2013        832
  10.2199        820
  10.2385        824
  10.2571        865
  10.2756        788
  10.2942        852
  10.3128        809
  10.3314        869
  10.3499        848
  10.3685        842
  10.3871        836
  10.4057        861
  10.4243        862
  10.4428        822
  10.4614        823
  10.4800        821
  10.4986        848
  10.5171        840
  10.5357        902
  10.5543        928
  10.5729        935
  10.5914        959
  10.6100        837
  10.6286        900
  10.6472        833
  10.6657        859
  10.6843        758
  10.7029        788
  10.7215        789
  10.7400        825
  10.7586        739
  10.7772        782
  10.7958        812
  10.8144        780
  10.8329        858
  10.8515        776
  10.8701        774
  10.8887        768
  10.9072        764
  10.9258        782
  10.9444        834
  10.9630        793
  10.9815        801
  11.0001        718
  11.0187        745
  11.0373        792
  11.0558        770
  11.0744        778
  11.0930        769
  11.1116        758
  11.1301        781
  11.1487        753
  11.1673        797
  11.1859        755
  11.2045        746
  11.2230        782
  11.2416        781
  11.2602        810
  11.2788        745
  11.2973        737
  11.3159        792
  11.3345        799
  11.3531        727
  11.3716        828
  11.3902        742
  11.4088        755
  11.4274        739
  11.4459        769
  11.4645        741
  11.4831        725
  11.5017        732
  11.5202        719
  11.5388        739
  11.5574        738
  11.5760        781
  11.5946        779
  11.6131        723
  11.6317        746
  11.6503        704
  11.6689        704
  11.6874        729
  11.7060        725
  11.7246        708
  11.7432        711
  11.7617        781
  11.7803        734
  11.7989        699
  11.8175        723
  11.8360        736
  11.8546        759
  11.8732        782
  11.8918        697
  11.9103        719
  11.9289        716
  11.9475        774
  11.9661        685
  11.9847        728
  12.0032        748
  12.0218        679
  12.0404        688
  12.0590        740
  12.0775        741
  12.0961        765
  12.1147        712
  12.1333        710
  12.1518        662
  12.1704        697
  12.1890        692
  12.2076        708
  12.2261        718
  12.2447        708
  12.2633        693
  12.2819        699
  12.3004        712
  12.3190        708
  12.3376        719
  12.3562        682
  12.3748        700
  12.3933        692
  12.4119        738
  12.4305        637
  12.4491        708
  12.4676        684
  12.4862        662
  12.5048        701
  12.5234        695
  12.5419        691
  12.5605        660
  12.5791        673
  12.5977        690
  12.6162        667
  12.6348        688
  12.6534        754
  12.6720        634
  12.6905        701
  12.7091        679
  12.7277        700
  12.7463        675
  12.7649        662
  12.7834        704
  12.8020        667
  12.8206        675
  12.8392        719
  12.8577        695
  12.8763        633
  12.8949        676
  12.9135        687
  12.9320        656
  12.9506        656
  12.9692        672
  12.9878        685
  13.0063        674
  13.0249        653
  13.0435        671
  13.0621        627
  13.0806        608
  13.0992        641
  13.1178        650
  13.1364        661
  13.1550        673
  13.1735        687
  13.1921        640
  13.2107        651
  13.2293        614
  13.2478        638
  13.2664        608
  13.2850        621
  13.3036        644
  13.3221        639
  13.3407        610
  13.3593        624
  13.3779        617
  13.3964        631
  13.4150        630
  13.4336        638
  13.4522        672
  13.4707        637
  13.4893        638
  13.5079        658
  13.5265        654
  13.5451        641
  13.5636        644
  13.5822        672
  13.6008        603
  13.6194        642
  13.6379        613
  13.6565        621
  13.6751        602
  13.6937        613
  13.7122        591
  13.7308        620
  13.7494        616
  13.7680        576
  13.7865        569
  13.8051        604
  13.8237        649
  13.8423        616
  13.8608        589
  13.8794        628
  13.8980        615
  13.9166        612
  13.9352        579
  13.9537        584
  13.9723        596
  13.9909        613
  14.0095        617
  14.0280        605
  14.0466        654
  14.0652        552
  14.0838        589
  14.1023        581
  14.1209        557
  14.1395        651
  14.1581        581
  14.1766        580
  14.1952        574
  14.2138        597
  14.2324        574
  14.2509        595
  14.2695        562
  14.2881        579
  14.3067        617
  14.3253        603
  14.3438        590
  14.3624        610
  14.3810        597
  14.3996        601
  14.4181        566
  14.4367        609
  14.4553        590
  14.4739        596
  14.4924        595
  14.5110        566
  14.5296        598
  14.5482        634
  14.5667        614
  14.5853        562
  14.6039        564
  14.6225        601
  14.6410        570
  14.6596        556
  14.6782        604
  14.6968        611
  14.7154        612
  14.7339        544
  14.7525        605
  14.7711        542
  14.7897        654
  14.8082        557
  14.8268        567
  14.8454        587
  14.8640        555
  14.8825        548
  14.9011        583
  14.9197        584
  14.9383        587
  14.9568        585
  14.9754        563
  14.9940        572
  15.0126        568
  15.0311        556
  15.0497        596
  15.0683        536
  15.0869        597
  15.1055        555
  15.1240        552
  15.1426        571
  15.1612        612
  15.1798        571
  15.1983        584
  15.2169        611
  15.2355        585
  15.2541        594
  15.2726        548
  15.2912        554
  15.3098        566
  15.3284        605
  15.3469        575
  15.3655        602
  15.3841        581
  15.4027        578
  15.4212        548
  15.4398        556
  15.4584        577
  15.4770        599
  15.4956        606
  15.5141        573
  15.5327        555
  15.5513        548
  15.5699        607
  15.5884        590
  15.6070        614
  15.6256        598
  15.6442        605
  15.6627        630
  15.6813        639
  15.6999        582
  15.7185        593
  15.7370        635
  15.7556        616
  15.7742        622
  15.7928        625
  15.8113        612
  15.8299        605
  15.8485        595
  15.8671        631
  15.8857        590
  15.9042        608
  15.9228        685
  15.9414        628
  15.9600        679
  15.9785        713
  15.9971        722
  16.0157        746
  16.0343        969
  16.0528       1132
  16.0714       1482
  16.0900       2083
  16.1086       2863
  16.1271       4022
  16.1457       4870
  16.1643       4770
  16.1829       4162
  16.2014       3119
  16.2200       2178
  16.2386       1556
  16.2572       1169
  16.2758        952
  16.2943        828
  16.3129        805
  16.3315        707
  16.3501        711
  16.3686        697
  16.3872        686
  16.4058        684
  16.4244        618
  16.4429        603
  16.4615        614
  16.4801        616
  16.4987        596
  16.5172        559
  16.5358        555
  16.5544        572
  16.5730        576
  16.5915        634
  16.6101        605
  16.6287        591
  16.6473        620
  16.6659        600
  16.6844        580
  16.7030        590
  16.7216        630
  16.7402        575
  16.7587        581
  16.7773        557
  16.7959        623
  16.8145        579
  16.8330        558
  16.8516        549
  16.8702        540
  16.8888        590
  16.9073        603
  16.9259        578
  16.9445        526
  16.9631        560
  16.9816        584
  17.0002        602
  17.0188        595
  17.0374        599
  17.0560        574
  17.0745        632
  17.0931        552
  17.1117        590
  17.1303        587
  17.1488        542
  17.1674        613
  17.1860        534
  17.2046        563
  17.2231        581
  17.2417        585
  17.2603        566
  17.2789        634
  17.2974        572
  17.3160        567
  17.3346        574
  17.3532        560
  17.3717        551
  17.3903        579
  17.4089        596
  17.4275        590
  17.4461        556
  17.4646        549
  17.4832        564
  17.5018        599
  17.5204        546
  17.5389        603
  17.5575        537
  17.5761        587
  17.5947        602
  17.6132        576
  17.6318        603
  17.6504        602
  17.6690        651
  17.6875        673
  17.7061        725
  17.7247        727
  17.7433        756
  17.7618        688
  17.7804        644
  17.7990        637
  17.8176        628
  17.8362        605
  17.8547        617
  17.8733        560
  17.8919        545
  17.9105        549
  17.9290        589
  17.9476        567
  17.9662        591
  17.9848        597
  18.0033        570
  18.0219        555
  18.0405        520
  18.0591        530
  18.0776        578
  18.0962        594
  18.1148        578
  18.1334        592
  18.1519        562
  18.1705        591
  18.1891        577
  18.2077        587
  18.2263        608
  18.2448        634
  18.2634        557
  18.2820        544
  18.3006        555
  18.3191        560
  18.3377        540
  18.3563        590
  18.3749        595
  18.3934        545
  18.4120        550
  18.4306        549
  18.4492        586
  18.4677        575
  18.4863        615
  18.5049        548
  18.5235        582
  18.5420        563
  18.5606        659
  18.5792        575
  18.5978        558
  18.6164        533
  18.6349        557
  18.6535        566
  18.6721        537
  18.6907        556
  18.7092        592
  18.7278        535
  18.7464        567
  18.7650        586
  18.7835        525
  18.8021        552
  18.8207        571
  18.8393        547
  18.8578        561
  18.8764        561
  18.8950        595
  18.9136        574
  18.9322        610
  18.9507        544
  18.9693        586
  18.9879        600
  19.0065        582
  19.0250        516
  19.0436        552
  19.0622        565
  19.0808        591
  19.0993        532
  19.1179        550
  19.1365        563
  19.1551        590
  19.1736        558
  19.1922        580
  19.2108        533
  19.2294        556
  19.2479        582
  19.2665        560
  19.2851        532
  19.3037        556
  19.3223        562
  19.3408        571
  19.3594        541
  19.3780        565
  19.3966        600
  19.4151        558
  19.4337        516
  19.4523        576
  19.4709        557
  19.4894        619
  19.5080        564
  19.5266        611
  19.5452        604
  19.5637        546
  19.5823        530
  19.6009        594
  19.6195        544
  19.6380        579
  19.6566        539
  19.6752        595
  19.6938        587
  19.7124        524
  19.7309        573
  19.7495        477
  19.7681        561
  19.7867        518
  19.8052        564
  19.8238        552
  19.8424        543
