   5.0000       2008
   5.0186       2049
   5.0372       1970
   5.0557       1966
   5.0743       1999
   5.0929       1943
   5.1115       1984
   5.1300       1925
   5.1486       1953
   5.1672       1917
   5.1858       2005
   5.2043       1880
   5.2229       1834
   5.2415       1868
   5.2601       1860
   5.2786       1880
   5.2972       1915
   5.3158       1765
   5.3344       1795
   5.3529       1797
   5.3715       1780
   5.3901       1769
   5.4087       1830
   5.4273       1782
   5.4458       1770
   5.4644       1744
   5.4830       1721
   5.5016       1754
   5.5201       1703
   5.5387       1681
   5.5573       1754
   5.5759       1678
   5.5944       1661
   5.6130       1704
   5.6316       1638
   5.6502       1642
   5.6687       1591
   5.6873       1646
   5.7059       1628
   5.7245       1679
   5.7430       1588
   5.7616       1626
   5.7802       1617
   5.7988       1622
   5.8174       1595
   5.8359       1606
   5.8545       1584
   5.8731       1547
   5.8917       1556
   5.9102       1553
   5.9288       1593
   5.9474       1540
   5.9660       1550
   5.9845       1545
   6.0031       1502
   6.0217       1437
   6.0403       1419
   6.0588       1472
   6.0774       1537
   6.0960       1478
   6.1146       1468
   6.1331       1436
   6.1517       1550
   6.1703       1520
   6.1889       1419
   6.2075       1484
   6.2260       1469
   6.2446       1473
   6.2632       1441
   6.2818       1312
   6.3003       1431
   6.3189       1470
   6.3375       1380
   6.3561       1419
   6.3746       1381
   6.3932       1374
   6.4118       1368
   6.4304       1427
   6.4489       1330
   6.4675       1360
   6.4861       1298
   6.5047       1309
   6.5232       1311
   6.5418       1407
   6.5604       1267
   6.5790       1331
   6.5976       1299
   6.6161       1227
   6.6347       1290
   6.6533       1293
   6.6719       1268
   6.6904       1278
   6.7090       1267
   6.7276       1282
   6.7462       1241
   6.7647       1278
   6.7833       1277
   6.8019       1269
   6.8205       1251
   6.8390       1202
   6.8576       1239
   6.8762       1213
   6.8948       1274
   6.9133       1263
   6.9319       1188
   6.9505       1202
   6.9691       1208
   6.9877       1237
   7.0062       1185
   7.0248       1244
   7.0434       1180
   7.0620       1192
   7.0805       1178
   7.0991       1188
   7.1177       1139
   7.1363       1214
   7.1548       1144
   7.1734       1153
   7.1920       1117
   7.2106       1174
   7.2291       1116
   7.2477       1113
   7.2663       1158
   7.2849       1152
   7.3034       1204
   7.3220       1156
   7.3406       1142
   7.3592       1129
   7.3778       1106
   7.3963       1145
   7.4149       1148
   7.4335       1139
   7.4521       1113
   7.4706       1131
   7.4892       1161
   7.5078       1121
   7.5264       1174
   7.5449       1052
   7.5635       1173
   7.5821       1138
   7.6007       1146
   7.6192       1107
   7.6378       1127
   7.6564       1086
   7.6750       1153
   7.6935       1135
   7.7121       1106
   7.7307       1177
   7.7493       1137
   7.7679       1115
   7.7864       1121
   7.8050       1142
   7.8236       1183
   7.8422       1131
   7.8607       1066
   7.8793       1073
   7.8979       1145
   7.9165       1088
   7.9350       1143
   7.9536       1098
   7.9722       1119
   7.9908       1180
   8.0093       1087
   8.0279       1087
   8.0465       1117
   8.0651       1119
   8.0836       1090
   8.1022       1168
   8.1208       1050
   8.1394       1196
   8.1580       1080
   8.1765       1121
   8.1951       1161
   8.2137       1138
   8.2323       1094
   8.2508       1103
   8.2694       1060
   8.2880       1133
   8.3066       1161
   8.3251       1103
   8.3437       1129
   8.3623       1134
   8.3809       1089
   8.3994       1141
   8.4180       1098
   8.4366       1135
   8.4552       1181
   8.4737       1045
   8.4923       1113
   8.5109       1143
   8.5295       1135
   8.5481       1081
   8.5666       1061
   8.5852       1089
   8.6038       1119
   8.6224       1163
   8.6409       1142
   8.6595       1129
   8.6781       1095
   8.6967       1066
   8.7152       1161
   8.7338       1054
   8.7524       1126
   8.7710       1054
   8.7895       1116
   8.8081       1060
   8.8267       1110
   8.8453       1122
   8.8638       1134
   8.8824       1090
   8.9010       1112
   8.9196       1107
   8.9382       1025
   8.9567       1070
   8.9753       1052
   8.9939       1137
   9.0125       1145
   9.0310       1088
   9.0496       1093
   9.0682       1150
   9.0868       1134
   9.1053       1061
   9.1239       1074
   9.1425       1067
   9.1611       1112
   9.1796       1141
   9.1982       1110
   9.2168       1086
   9.2354       1120
   9.2539       1137
   9.2725       1113
   9.2911       1135
   9.3097       1100
   9.3283       1097
   9.3468       1097
   9.3654       1041
   9.3840       1115
   9.4026       1082
   9.4211       1084
   9.4397       1038
   9.4583       1113
   9.4769       1093
   9.4954       1093
   9.5140       1039
   9.5326       1044
   9.5512       1055
   9.5697       1072
   9.5883       1067
   9.6069       1051
   9.6255       1052
   9.6441       1067
   9.6626       1047
   9.6812       1119
   9.6998       1065
   9.7184       1051
   9.7369       1096
   9.7555       1108
   9.7741       1094
   9.7927       1044
   9.8112       1111
   9.8298       1078
   9.8484       1107
   9.8670       1094
   9.8855       1091
   9.9041       1054
   9.9227       1074
   9.9413       1076
   9.9598       1103
   9.9784       1085
   9.9970       1068
  10.0156       1097
  10.0342       1047
  10.0527       1079
  10.0713       1155
  10.0899       1033
  10.1085       1053
  10.1270       1031
  10.1456       1111
  10.1642       1051
  10.1828       1052
  10.2013       1099
  10.2199       1078
  10.2385       1081
  10.2571       1035
  10.2756       1041
  10.2942       1080
  10.3128       1051
  10.3314       1075
  10.3499       1062
  10.3685       1051
  10.3871       1059
  10.4057       1110
  10.4243       1035
  10.4428       1021
  10.4614       1014
  10.4800       1038
  10.4986       1029
  10.5171       1065
  10.5357       1092
  10.5543       1040
  10.5729        988
  10.5914       1024
  10.6100       1053
  10.6286       1058
  10.6472       1042
  10.6657       1105
  10.6843       1017
  10.7029       1014
  10.7215       1047
  10.7400       1054
  10.7586       1030
  10.7772       1067
  10.7958       1088
  10.8144       1028
  10.8329       1007
  10.8515       1045
  10.8701       1021
  10.8887       1026
  10.9072       1059
  10.9258       1018
  10.9444       1031
  10.9630       1001
  10.9815       1046
  11.0001       1017
  11.0187       1003
  11.0373        982
  11.0558       1051
  11.0744        981
  11.0930        991
  11.1116        983
  11.1301       1032
  11.1487        922
  11.1673        960
  11.1859        978
  11.2045       1030
  11.2230        989
  11.2416        970
  11.2602        946
  11.2788        949
  11.2973        985
  11.3159       1013
  11.3345       1011
  11.3531       1074
  11.3716        982
  11.3902        971
  11.4088        942
  11.4274        997
  11.4459        971
  11.4645        984
  11.4831       1045
  11.5017       1032
  11.5202        964
  11.5388        983
  11.5574        968
  11.5760        968
  11.5946        907
  11.6131        960
  11.6317        946
  11.6503        904
  11.6689        994
  11.6874        997
  11.7060        962
  11.7246       1005
  11.7432        989
  11.7617        964
  11.7803        990
  11.7989        999
  11.8175       1024
  11.8360        960
  11.8546        942
  11.8732        995
  11.8918        975
  11.9103        999
  11.9289       1017
  11.9475        977
  11.9661       1016
  11.9847       1012
  12.0032        964
  12.0218        965
  12.0404       1019
  12.0590       1074
  12.0775        998
  12.0961       1044
  12.1147        927
  12.1333        959
  12.1518        985
  12.1704        958
  12.1890        886
  12.2076        913
  12.2261        953
  12.2447        949
  12.2633        926
  12.2819        910
  12.3004        958
  12.3190        949
  12.3376        905
  12.3562        892
  12.3748        975
  12.3933        964
  12.4119        970
  12.4305        966
  12.4491        950
  12.4676        901
  12.4862        869
  12.5048        948
  12.5234        939
  12.5419        990
  12.5605        907
  12.5791        894
  12.5977        881
  12.6162        905
  12.6348        952
  12.6534        905
  12.6720        846
  12.6905        943
  12.7091        874
  12.7277        883
  12.7463        893
  12.7649        867
  12.7834        861
  12.8020        837
  12.8206        871
  12.8392        875
  12.8577        954
  12.8763        875
  12.8949        847
  12.9135        847
  12.9320        847
  12.9506        853
  12.9692        891
  12.9878        851
  13.0063        850
  13.0249        907
  13.0435        900
  13.0621        886
  13.0806        913
  13.0992        859
  13.1178        841
  13.1364        884
  13.1550        860
  13.1735        887
  13.1921        885
  13.2107        883
  13.2293        857
  13.2478        817
  13.2664        876
  13.2850        847
  13.3036        856
  13.3221        835
  13.3407        857
  13.3593        840
  13.3779        861
  13.3964        832
  13.4150        839
  13.4336        801
  13.4522        857
  13.4707        822
  13.4893        848
  13.5079        792
  13.5265        841
  13.5451        854
  13.5636        825
  13.5822        780
  13.6008        884
  13.6194        876
  13.6379        895
  13.6565        860
  13.6751        869
  13.6937        811
  13.7122        852
  13.7308        804
  13.7494        782
  13.7680        834
  13.7865        816
  13.8051        790
  13.8237        812
  13.8423        763
  13.8608        800
  13.8794        822
  13.8980        812
  13.9166        835
  13.9352        802
  13.9537        846
  13.9723        800
  13.9909        830
  14.0095        773
  14.0280        771
  14.0466        790
  14.0652        823
  14.0838        818
  14.1023        784
  14.1209        811
  14.1395        842
  14.1581        837
  14.1766        785
  14.1952        812
  14.2138        859
  14.2324        833
  14.2509        819
  14.2695        835
  14.2881        795
  14.3067        786
  14.3253        804
  14.3438        776
  14.3624        787
  14.3810        785
  14.3996        818
  14.4181        808
  14.4367        826
  14.4553        768
  14.4739        753
  14.4924        782
  14.5110        763
  14.5296        806
  14.5482        751
  14.5667        775
  14.5853        768
  14.6039        790
  14.6225        781
  14.6410        771
  14.6596        789
  14.6782        766
  14.6968        764
  14.7154        786
  14.7339        804
  14.7525        836
  14.7711        769
  14.7897        750
  14.8082        761
  14.8268        757
  14.8454        781
  14.8640        803
  14.8825        798
  14.9011        789
  14.9197        765
  14.9383        792
  14.9568        740
  14.9754        786
  14.9940        789
  15.0126        835
  15.0311        795
  15.0497        809
  15.0683        781
  15.0869        750
  15.1055        769
  15.1240        839
  15.1426        767
  15.1612        763
  15.1798        776
  15.1983        774
  15.2169        761
  15.2355        775
  15.2541        814
  15.2726        825
  15.2912        791
  15.3098        781
  15.3284        790
  15.3469        739
  15.3655        748
  15.3841        806
  15.4027        768
  15.4212        776
  15.4398        820
  15.4584        761
  15.4770        788
  15.4956        813
  15.5141        774
  15.5327        787
  15.5513        772
  15.5699        742
  15.5884        754
  15.6070        789
  15.6256        813
  15.6442        762
  15.6627        758
  15.6813        761
  15.6999        764
  15.7185        756
  15.7370        745
  15.7556        754
  15.7742        800
  15.7928        766
  15.8113        787
  15.8299        734
  15.8485        752
  15.8671        778
  15.8857        751
  15.9042        808
  15.9228        749
  15.9414        702
  15.9600        730
  15.9785        754
  15.9971        772
  16.0157        778
  16.0343        751
  16.0528        711
  16.0714        765
  16.0900        753
  16.1086        782
  16.1271        753
  16.1457        740
  16.1643        802
  16.1829        774
  16.2014        779
  16.2200        741
  16.2386        741
  16.2572        796
  16.2758        746
  16.2943        763
  16.3129        769
  16.3315        745
  16.3501        781
  16.3686        733
  16.3872        775
  16.4058        781
  16.4244        831
  16.4429        805
  16.4615        746
  16.4801        722
  16.4987        794
  16.5172        799
  16.5358        761
  16.5544        744
  16.5730        780
  16.5915        788
  16.6101        757
  16.6287        750
  16.6473        753
  16.6659        758
  16.6844        790
  16.7030        765
  16.7216        814
  16.7402        782
  16.7587        727
  16.7773        764
  16.7959        762
  16.8145        753
  16.8330        748
  16.8516        722
  16.8702        702
  16.8888        760
  16.9073        751
  16.9259        754
  16.9445        736
  16.9631        776
  16.9816        816
  17.0002        813
  17.0188        767
  17.0374        773
  17.0560        827
  17.0745        724
  17.0931        755
  17.1117        828
  17.1303        741
  17.1488        796
  17.1674        805
  17.1860        742
  17.2046        746
  17.2231        769
  17.2417        782
  17.2603        738
  17.2789        765
  17.2974        760
  17.3160        791
  17.3346        827
  17.3532        756
  17.3717        796
  17.3903        764
  17.4089        766
  17.4275        791
  17.4461        778
  17.4646        791
  17.4832        756
  17.5018        800
  17.5204        739
  17.5389        770
  17.5575        761
  17.5761        711
  17.5947        767
  17.6132        760
  17.6318        804
  17.6504        756
  17.6690        773
  17.6875        790
  17.7061        765
  17.7247        754
  17.7433        769
  17.7618        757
  17.7804        786
  17.7990        795
  17.8176        693
  17.8362        744
  17.8547        772
  17.8733        808
  17.8919        817
  17.9105        774
  17.9290        768
  17.9476        791
  17.9662        710
  17.9848        797
  18.0033        769
  18.0219        727
  18.0405        772
  18.0591        809
  18.0776        761
  18.0962        788
  18.1148        777
  18.1334        728
  18.1519        757
  18.1705        728
  18.1891        763
  18.2077        751
  18.2263        767
  18.2448        757
  18.2634        776
  18.2820        754
  18.3006        817
  18.3191        765
  18.3377        775
  18.3563        775
  18.3749        796
  18.3934        788
  18.4120        748
  18.4306        827
  18.4492        796
  18.4677        795
  18.4863        744
  18.5049        763
  18.5235        782
  18.5420        797
  18.5606        806
  18.5792        822
  18.5978        777
  18.6164        773
  18.6349        775
  18.6535        857
  18.6721        823
  18.6907        800
  18.7092        810
  18.7278        752
  18.7464        826
  18.7650        814
  18.7835        789
  18.8021        780
  18.8207        809
  18.8393        719
  18.8578        753
  18.8764        821
  18.8950        794
  18.9136        781
  18.9322        800
  18.9507        816
  18.9693        795
  18.9879        776
  19.0065        783
  19.0250        798
  19.0436        805
  19.0622        796
  19.0808        783
  19.0993        798
  19.1179        806
  19.1365        768
  19.1551        835
  19.1736        816
  19.1922        786
  19.2108        828
  19.2294        760
  19.2479        742
  19.2665        807
  19.2851        796
  19.3037        820
  19.3223        780
  19.3408        790
  19.3594        773
  19.3780        810
  19.3966        769
  19.4151        769
  19.4337        813
  19.4523        789
  19.4709        727
  19.4894        789
  19.5080        781
  19.5266        750
  19.5452        786
  19.5637        776
  19.5823        760
  19.6009        788
  19.6195        777
  19.6380        821
  19.6566        798
  19.6752        751
  19.6938        780
  19.7124        765
  19.7309        790
  19.7495        813
  19.7681        832
  19.7867        794
  19.8052        794
  19.8238        751
  19.8424        810
  19.8610        774
  19.8795        768
  19.8981        784
  19.9167        798
  19.9353        825
  19.9538        760
  19.9724        764
  19.9910        765
  20.0096        809
  20.0281        827
  20.0467        727
  20.0653        835
  20.0839        807
  20.1025        807
  20.1210        800
  20.1396        838
  20.1582        808
  20.1768        835
  20.1953        804
  20.2139        729
  20.2325        735
  20.2511        794
  20.2696        815
  20.2882        771
  20.3068        778
  20.3254        787
  20.3439        829
  20.3625        773
  20.3811        837
  20.3997        788
  20.4182        820
  20.4368        779
  20.4554        826
  20.4740        793
  20.4926        776
  20.5111        807
  20.5297        846
  20.5483        828
  20.5669        861
  20.5854        906
  20.6040        838
  20.6226        901
  20.6412        921
  20.6597        944
  20.6783        888
  20.6969        825
  20.7155        881
  20.7340        823
  20.7526        826
  20.7712        881
  20.7898        777
  20.8083        799
  20.8269        863
  20.8455        781
  20.8641        832
  20.8827        828
  20.9012        855
  20.9198        764
  20.9384        879
  20.9570        849
  20.9755        817
  20.9941        785
  21.0127        773
  21.0313        784
  21.0498        801
  21.0684        821
  21.0870        758
  21.1056        795
  21.1241        789
  21.1427        810
  21.1613        836
  21.1799        856
  21.1984        866
  21.2170        812
  21.2356        844
  21.2542        813
  21.2728        808
  21.2913        859
  21.3099        809
  21.3285        816
  21.3471        782
  21.3656        815
  21.3842        760
  21.4028        790
  21.4214        816
  21.4399        799
  21.4585        851
  21.4771        761
  21.4957        773
  21.5142        795
  21.5328        841
  21.5514        813
  21.5700        807
  21.5885        800
  21.6071        773
  21.6257        837
  21.6443        833
  21.6629        834
  21.6814        809
  21.7000        844
  21.7186        805
  21.7372        862
  21.7557        860
  21.7743        902
  21.7929        843
  21.8115        859
  21.8300        846
  21.8486        800
  21.8672        844
  21.8858        861
  21.9043        890
  21.9229        831
  21.9415        807
  21.9601        846
  21.9786        800
  21.9972        833
  22.0158        846
  22.0344        816
  22.0530        787
  22.0715        848
  22.0901        785
  22.1087        813
  22.1273        846
  22.1458        829
  22.1644        799
  22.1830        822
  22.2016        834
  22.2201        805
  22.2387        817
  22.2573        806
  22.2759        826
  22.2944        829
  22.3130        773
  22.3316        880
  22.3502        812
  22.3687        801
  22.3873        836
  22.4059        781
  22.4245        817
  22.4431        829
  22.4616        898
  22.4802        868
  22.4988        883
  22.5174        898
  22.5359        898
  22.5545        890
  22.5731        855
  22.5917        883
  22.6102        864
  22.6288        850
  22.6474        852
  22.6660        766
  22.6845        818
  22.7031        813
  22.7217        817
  22.7403        820
  22.7588        813
  22.7774        802
  22.7960        830
  22.8146        815
  22.8332        806
  22.8517        840
  22.8703        872
  22.8889        872
  22.9075        932
  22.9260        849
  22.9446        955
  22.9632       1039
  22.9818       1153
  23.0003       1268
  23.0189       1273
  23.0375       1368
  23.0561       1271
  23.0746       1189
  23.0932       1097
  23.1118       1053
  23.1304        997
  23.1489        878
  23.1675        886
  23.1861        875
  23.2047        911
  23.2233        910
  23.2418        971
  23.2604       1022
  23.2790       1044
  23.2976       1140
  23.3161       1183
  23.3347       1175
  23.3533       1042
  23.3719       1036
  23.3904       1037
  23.4090        975
  23.4276        905
  23.4462        899
  23.4647        935
  23.4833        808
  23.5019        868
  23.5205        847
  23.5390        862
  23.5576        790
  23.5762        817
  23.5948        826
  23.6134        771
  23.6319        839
  23.6505        813
  23.6691        806
  23.6877        850
  23.7062        811
  23.7248        810
  23.7434        812
  23.7620        838
  23.7805        802
  23.7991        850
  23.8177        843
  23.8363        871
  23.8548        884
  23.8734        875
  23.8920        967
  23.9106       1034
  23.9291       1086
  23.9477       1165
  23.9663       1109
  23.9849       1041
  24.0035       1030
  24.0220        991
  24.0406        951
  24.0592        947
  24.0778        926
  24.0963        987
  24.1149        959
  24.1335        986
  24.1521       1003
  24.1706       1073
  24.1892       1036
  24.2078       1025
  24.2264        967
  24.2449        949
  24.2635        924
  24.2821        870
  24.3007        883
  24.3192        843
  24.3378        795
  24.3564        862
  24.3750        847
  24.3936        797
  24.4121        823
  24.4307        817
  24.4493        776
  24.4679        817
  24.4864        789
  24.5050        784
  24.5236        875
  24.5422        788
  24.5607        833
  24.5793        790
  24.5979        828
  24.6165        815
  24.6350        858
  24.6536        807
  24.6722        846
  24.6908        804
  24.7093        759
  24.7279        804
  24.7465        795
  24.7651        767
  24.7837        778
  24.8022        825
  24.8208        806
  24.8394        841
  24.8580        827
  24.8765        815
  24.8951        855
  24.9137        837
  24.9323        842
  24.9508        881
  24.9694        808
  24.9880        786
  25.0066        740
  25.0251        790
  25.0437        790
  25.0623        807
  25.0809        766
  25.0994        785
  25.1180        765
  25.1366        819
  25.1552        837
  25.1738        808
  25.1923        807
  25.2109        788
  25.2295        827
  25.2481        815
  25.2666        855
  25.2852        781
  25.3038        797
  25.3224        747
  25.3409        814
  25.3595        777
  25.3781        801
  25.3967        806
  25.4152        784
  25.4338        834
  25.4524        832
  25.4710        797
  25.4895        815
  25.5081        755
  25.5267        808
  25.5453        809
  25.5639        793
  25.5824        827
  25.6010        851
  25.6196        940
  25.6382        882
  25.6567        861
  25.6753        859
  25.6939        865
  25.7125        791
  25.7310        797
  25.7496        825
  25.7682        814
  25.7868        776
  25.8053        782
  25.8239        768
  25.8425        800
  25.8611        807
  25.8796        804
  25.8982        794
  25.9168        792
  25.9354        711
  25.9540        805
  25.9725        764
  25.9911        811
  26.0097        845
  26.0283        833
  26.0468        819
  26.0654        833
  26.0840        861
  26.1026        787
  26.1211        795
  26.1397        809
  26.1583        830
  26.1769        809
  26.1954        782
  26.2140        795
  26.2326        822
  26.2512        804
  26.2697        805
  26.2883        821
  26.3069        817
  26.3255        818
  26.3441        809
  26.3626        837
  26.3812        780
  26.3998        795
  26.4184        828
  26.4369        796
  26.4555        738
  26.4741        786
  26.4927        757
  26.5112        777
  26.5298        735
  26.5484        764
  26.5670        794
  26.5855        747
  26.6041        762
  26.6227        802
  26.6413        756
  26.6598        785
  26.6784        736
  26.6970        750
  26.7156        735
  26.7342        787
  26.7527        755
  26.7713        679
  26.7899        736
  26.8085        813
  26.8270        766
  26.8456        718
  26.8642        725
  26.8828        761
  26.9013        831
  26.9199        753
  26.9385        732
  26.9571        772
  26.9756        738
  26.9942        735
  27.0128        769
  27.0314        725
  27.0499        718
  27.0685        765
  27.0871        760
  27.1057        689
  27.1243        745
  27.1428        765
  27.1614        702
  27.1800        744
  27.1986        767
  27.2171        748
  27.2357        755
  27.2543        730
  27.2729        722
  27.2914        725
  27.3100        738
  27.3286        665
  27.3472        736
  27.3657        700
  27.3843        743
  27.4029        717
  27.4215        747
  27.4400        731
  27.4586        718
  27.4772        652
  27.4958        699
  27.5144        737
  27.5329        765
  27.5515        744
  27.5701        736
  27.5887        704
  27.6072        688
  27.6258        721
  27.6444        740
  27.6630        709
  27.6815        744
  27.7001        674
  27.7187        752
  27.7373        759
  27.7558        716
  27.7744        734
  27.7930        740
  27.8116        731
  27.8301        728
  27.8487        729
  27.8673        745
  27.8859        802
  27.9045        829
  27.9230        818
  27.9416        772
  27.9602        781
  27.9788        815
  27.9973        775
  28.0159        794
  28.0345        776
  28.0531        768
  28.0716        726
  28.0902        720
  28.1088        712
  28.1274        768
  28.1459        754
  28.1645        650
  28.1831        667
  28.2017        730
  28.2203        723
  28.2388        680
  28.2574        688
  28.2760        745
  28.2946        717
  28.3131        685
  28.3317        740
  28.3503        702
  28.3689        692
  28.3874        705
  28.4060        694
  28.4246        720
  28.4432        701
  28.4617        739
  28.4803        775
  28.4989        791
  28.5175        817
  28.5360        918
  28.5546       1031
  28.5732       1113
  28.5918       1204
  28.6104       1273
  28.6289       1292
  28.6475       1325
  28.6661       1353
  28.6847       1237
  28.7032       1160
  28.7218       1102
  28.7404        999
  28.7590        943
  28.7775        862
  28.7961        849
  28.8147        774
  28.8333        767
  28.8518        735
  28.8704        691
  28.8890        701
  28.9076        745
  28.9261        730
  28.9447        725
  28.9633        692
  28.9819        653
  29.0005        716
  29.0190        691
  29.0376        675
  29.0562        664
  29.0748        690
  29.0933        673
  29.1119        755
  29.1305        742
  29.1491        697
  29.1676        732
  29.1862        685
  29.2048        707
  29.2234        671
  29.2419        654
  29.2605        699
  29.2791        647
  29.2977        674
  29.3162        662
  29.3348        682
  29.3534        703
  29.3720        642
  29.3906        674
  29.4091        631
  29.4277        663
  29.4463        671
  29.4649        656
  29.4834        670
  29.5020        651
  29.5206        630
  29.5392        665
  29.5577        702
  29.5763        638
  29.5949        680
  29.6135        678
  29.6320        686
  29.6506        716
  29.6692        626
  29.6878        665
  29.7063        699
  29.7249        720
  29.7435        704
  29.7621        736
  29.7807        672
  29.7992        718
  29.8178        740
  29.8364        775
  29.8550        736
  29.8735        774
  29.8921        711
  29.9107        730
  29.9293        687
  29.9478        671
  29.9664        627
  29.9850        629
  30.0036        633
  30.0221        646
  30.0407        652
  30.0593        636
  30.0779        654
  30.0964        644
  30.1150        659
  30.1336        632
  30.1522        612
  30.1708        650
  30.1893        653
  30.2079        651
  30.2265        652
  30.2451        646
  30.2636        634
  30.2822        620
  30.3008        685
  30.3194        709
  30.3379        676
  30.3565        602
  30.3751        643
  30.3937        649
  30.4122        703
  30.4308        689
  30.4494        684
  30.4680        719
  30.4865        715
  30.5051        813
  30.5237        796
  30.5423        885
  30.5609        883
  30.5794        995
  30.5980        957
  30.6166        963
  30.6352        984
  30.6537        980
  30.6723        908
  30.6909        879
  30.7095        800
  30.7280        796
  30.7466        703
  30.7652        746
  30.7838        757
  30.8023        673
  30.8209        730
  30.8395        647
  30.8581        613
  30.8766        655
  30.8952        612
  30.9138        606
  30.9324        624
  30.9510        632
  30.9695        680
  30.9881        658
  31.0067        633
  31.0253        569
  31.0438        612
  31.0624        661
  31.0810        617
  31.0996        684
  31.1181        614
  31.1367        652
  31.1553        634
  31.1739        656
  31.1924        612
  31.2110        626
  31.2296        646
  31.2482        631
  31.2667        642
  31.2853        673
  31.3039        596
  31.3225        643
  31.3411        644
  31.3596        638
  31.3782        651
  31.3968        649
  31.4154        676
  31.4339        645
  31.4525        642
  31.4711        627
  31.4897        695
  31.5082        680
  31.5268        652
  31.5454        675
  31.5640        607
  31.5825        687
  31.6011        683
  31.6197        636
  31.6383        651
  31.6568        616
  31.6754        630
  31.6940        634
  31.7126        635
  31.7312        629
  31.7497        628
  31.7683        598
  31.7869        614
  31.8055        653
  31.8240        621
  31.8426        631
  31.8612        668
  31.8798        655
  31.8983        680
  31.9169        730
  31.9355        760
  31.9541        857
  31.9726        923
  31.9912       1147
  32.0098       1372
  32.0284       1537
  32.0469       1573
  32.0655       1422
  32.0841       1198
  32.1027       1212
  32.1213       1201
  32.1398       1096
  32.1584        891
  32.1770        758
  32.1956        706
  32.2141        672
  32.2327        675
  32.2513        690
  32.2699        654
  32.2884        736
  32.3070        754
  32.3256        927
  32.3442       1043
  32.3627       1089
  32.3813        944
  32.3999        801
  32.4185        794
  32.4370        867
  32.4556        742
  32.4742        688
  32.4928        669
  32.5114        635
  32.5299        622
  32.5485        614
  32.5671        662
  32.5857        673
  32.6042        672
  32.6228        741
  32.6414        765
  32.6600        713
  32.6785        773
  32.6971        827
  32.7157       1000
  32.7343       1132
  32.7528       1264
  32.7714       1356
  32.7900       1306
  32.8086       1238
  32.8271       1147
  32.8457       1108
  32.8643       1087
  32.8829        949
  32.9015        855
  32.9200        755
  32.9386        708
  32.9572        680
  32.9758        624
  32.9943        664
  33.0129        608
  33.0315        637
  33.0501        684
  33.0686        666
  33.0872        666
  33.1058        669
  33.1244        671
  33.1429        650
  33.1615        671
  33.1801        621
  33.1987        617
  33.2172        622
  33.2358        657
  33.2544        613
  33.2730        629
  33.2916        653
  33.3101        581
  33.3287        579
  33.3473        599
  33.3659        598
  33.3844        633
  33.4030        617
  33.4216        605
  33.4402        624
  33.4587        652
  33.4773        703
  33.4959        771
  33.5145        836
  33.5330        922
  33.5516       1131
  33.5702       1311
  33.5888       1576
  33.6073       1798
  33.6259       1814
  33.6445       1693
  33.6631       1568
  33.6817       1495
  33.7002       1476
  33.7188       1279
  33.7374       1043
  33.7560        944
  33.7745        819
  33.7931        793
  33.8117        709
  33.8303        677
  33.8488        635
  33.8674        645
  33.8860        628
  33.9046        626
  33.9231        640
  33.9417        602
  33.9603        584
  33.9789        589
  33.9974        561
  34.0160        532
  34.0346        596
  34.0532        557
  34.0718        534
  34.0903        559
  34.1089        550
  34.1275        545
  34.1461        573
  34.1646        586
  34.1832        552
  34.2018        532
  34.2204        531
  34.2389        537
  34.2575        528
  34.2761        518
  34.2947        541
  34.3132        504
  34.3318        515
  34.3504        563
  34.3690        523
  34.3875        515
  34.4061        527
  34.4247        560
  34.4433        515
  34.4619        514
  34.4804        558
  34.4990        531
  34.5176        515
  34.5362        550
  34.5547        530
  34.5733        529
  34.5919        554
  34.6105        510
  34.6290        586
  34.6476        531
  34.6662        528
  34.6848        549
  34.7033        525
  34.7219        551
  34.7405        546
  34.7591        517
  34.7776        532
  34.7962        504
  34.8148        532
  34.8334        522
  34.8520        551
  34.8705        574
  34.8891        610
  34.9077        655
  34.9263        658
  34.9448        670
  34.9634        705
  34.9820        658
  35.0006        673
  35.0191        675
  35.0377        592
  35.0563        671
  35.0749        568
  35.0934        579
  35.1120        545
  35.1306        535
  35.1492        557
  35.1677        537
  35.1863        573
  35.2049        521
  35.2235        539
  35.2421        528
  35.2606        515
  35.2792        514
  35.2978        513
  35.3164        539
  35.3349        540
  35.3535        509
  35.3721        527
  35.3907        531
  35.4092        554
  35.4278        502
  35.4464        601
  35.4650        577
  35.4835        585
  35.5021        627
  35.5207        623
  35.5393        625
  35.5578        695
  35.5764        652
  35.5950        723
  35.6136        690
  35.6322        701
  35.6507        672
  35.6693        674
  35.6879        678
  35.7065        657
  35.7250        593
  35.7436        615
  35.7622        543
  35.7808        556
  35.7993        549
  35.8179        488
  35.8365        519
  35.8551        541
  35.8736        504
  35.8922        486
  35.9108        503
  35.9294        506
  35.9479        501
  35.9665        457
  35.9851        491
  36.0037        525
  36.0223        503
  36.0408        502
  36.0594        494
  36.0780        497
  36.0966        502
  36.1151        535
  36.1337        487
  36.1523        491
  36.1709        440
  36.1894        487
  36.2080        473
  36.2266        469
  36.2452        487
  36.2637        460
  36.2823        486
  36.3009        514
  36.3195        544
  36.3380        478
  36.3566        512
  36.3752        495
  36.3938        531
  36.4124        538
  36.4309        471
  36.4495        497
  36.4681        487
  36.4867        523
  36.5052        543
  36.5238        522
  36.5424        488
  36.5610        522
  36.5795        525
  36.5981        542
  36.6167        513
  36.6353        496
  36.6538        528
  36.6724        554
  36.6910        472
  36.7096        511
  36.7281        509
  36.7467        501
  36.7653        517
  36.7839        483
  36.8025        453
  36.8210        466
  36.8396        468
  36.8582        496
  36.8768        487
  36.8953        511
  36.9139        447
  36.9325        504
  36.9511        481
  36.9696        447
  36.9882        414
  37.0068        461
  37.0254        457
  37.0439        542
  37.0625        547
  37.0811        499
  37.0997        539
  37.1182        515
  37.1368        535
  37.1554        510
  37.1740        578
  37.1926        562
  37.2111        572
  37.2297        551
  37.2483        578
  37.2669        545
  37.2854        542
  37.3040        548
  37.3226        539
  37.3412        499
  37.3597        520
  37.3783        478
  37.3969        484
  37.4155        481
  37.4340        486
  37.4526        436
  37.4712        420
  37.4898        477
  37.5084        487
  37.5269        490
  37.5455        430
  37.5641        470
  37.5827        480
  37.6012        497
  37.6198        459
  37.6384        467
  37.6570        464
  37.6755        458
  37.6941        498
  37.7127        491
  37.7313        496
  37.7498        475
  37.7684        471
  37.7870        488
  37.8056        485
  37.8241        455
  37.8427        437
  37.8613        446
  37.8799        471
  37.8985        461
  37.9170        500
  37.9356        463
  37.9542        450
  37.9728        441
  37.9913        453
  38.0099        457
  38.0285        473
  38.0471        484
  38.0656        432
  38.0842        482
  38.1028        427
  38.1214        426
  38.1399        448
  38.1585        460
  38.1771        456
  38.1957        423
  38.2142        457
  38.2328        431
  38.2514        487
  38.2700        462
  38.2886        490
  38.3071        450
  38.3257        484
  38.3443        471
  38.3629        503
  38.3814        493
  38.4000        454
  38.4186        460
  38.4372        459
  38.4557        423
  38.4743        478
  38.4929        440
  38.5115        421
  38.5300        494
  38.5486        511
  38.5672        474
  38.5858        498
  38.6043        477
  38.6229        490
  38.6415        463
  38.6601        498
  38.6787        497
  38.6972        530
  38.7158        531
  38.7344        559
  38.7530        604
  38.7715        591
  38.7901        626
  38.8087        675
  38.8273        636
  38.8458        600
  38.8644        563
  38.8830        615
  38.9016        544
  38.9201        590
  38.9387        538
  38.9573        543
  38.9759        522
  38.9944        479
  39.0130        473
  39.0316        508
  39.0502        477
  39.0688        443
  39.0873        463
  39.1059        450
  39.1245        453
  39.1431        484
  39.1616        463
  39.1802        473
  39.1988        424
  39.2174        446
  39.2359        445
  39.2545        460
  39.2731        427
  39.2917        508
  39.3102        431
  39.3288        431
  39.3474        455
  39.3660        425
  39.3845        447
  39.4031        445
  39.4217        462
  39.4403        420
  39.4589        467
  39.4774        431
  39.4960        443
  39.5146        441
  39.5332        453
  39.5517        437
  39.5703        453
  39.5889        439
  39.6075        438
  39.6260        468
  39.6446        449
  39.6632        458
  39.6818        484
  39.7003        481
  39.7189        458
  39.7375        411
  39.7561        453
  39.7746        439
  39.7932        409
  39.8118        443
  39.8304        449
  39.8490        448
  39.8675        441
  39.8861        442
  39.9047        419
  39.9233        407
  39.9418        423
  39.9604        458
  39.9790        447
  39.9976        443
  40.0161        417
  40.0347        418
  40.0533        425
  40.0719        418
  40.0904        423
  40.1090        414
  40.1276        453
  40.1462        463
  40.1647        460
  40.1833        416
  40.2019        419
  40.2205        431
  40.2391        421
  40.2576        437
  40.2762        487
  40.2948        457
  40.3134        416
  40.3319        473
  40.3505        445
  40.3691        471
  40.3877        494
  40.4062        472
  40.4248        482
  40.4434        482
  40.4620        492
  40.4805        484
  40.4991        466
  40.5177        458
  40.5363        465
  40.5548        472
  40.5734        452
  40.5920        458
  40.6106        426
  40.6292        449
  40.6477        462
  40.6663        487
  40.6849        442
  40.7035        451
  40.7220        479
  40.7406        437
  40.7592        443
  40.7778        467
  40.7963        480
  40.8149        453
  40.8335        481
  40.8521        473
  40.8706        464
  40.8892        517
  40.9078        475
  40.9264        448
  40.9449        490
  40.9635        452
  40.9821        471
  41.0007        565
  41.0193        535
  41.0378        569
  41.0564        580
  41.0750        672
  41.0936        717
  41.1121        767
  41.1307        769
  41.1493        796
  41.1679        762
  41.1864        728
  41.2050        684
  41.2236        698
  41.2422        604
  41.2607        585
  41.2793        586
  41.2979        538
  41.3165        520
  41.3350        476
  41.3536        470
  41.3722        481
  41.3908        496
  41.4094        470
  41.4279        459
  41.4465        445
  41.4651        449
  41.4837        458
  41.5022        449
  41.5208        408
  41.5394        469
  41.5580        439
  41.5765        418
  41.5951        400
  41.6137        408
  41.6323        431
  41.6508        442
  41.6694        417
  41.6880        441
  41.7066        453
  41.7251        461
  41.7437        467
  41.7623        460
  41.7809        445
  41.7995        478
  41.8180        429
  41.8366        467
  41.8552        457
  41.8738        460
  41.8923        450
  41.9109        420
  41.9295        456
  41.9481        421
  41.9666        405
  41.9852        495
  42.0038        420
  42.0224        438
  42.0409        437
  42.0595        421
  42.0781        472
  42.0967        483
  42.1152        442
  42.1338        468
  42.1524        425
  42.1710        415
  42.1896        435
  42.2081        445
  42.2267        463
  42.2453        441
  42.2639        461
  42.2824        442
  42.3010        440
  42.3196        450
  42.3382        413
  42.3567        414
  42.3753        471
  42.3939        428
  42.4125        467
  42.4310        426
  42.4496        433
  42.4682        421
  42.4868        481
  42.5053        435
  42.5239        406
  42.5425        438
  42.5611        429
  42.5797        438
  42.5982        444
  42.6168        415
  42.6354        481
  42.6540        440
  42.6725        450
  42.6911        418
  42.7097        453
  42.7283        435
  42.7468        448
  42.7654        443
  42.7840        441
  42.8026        455
  42.8211        459
  42.8397        481
  42.8583        446
  42.8769        473
  42.8954        458
  42.9140        466
  42.9326        486
  42.9512        441
  42.9698        419
  42.9883        461
  43.0069        468
  43.0255        428
  43.0441        459
  43.0626        422
  43.0812        470
  43.0998        484
  43.1184        486
  43.1369        445
  43.1555        415
  43.1741        470
  43.1927        430
  43.2112        465
  43.2298        423
  43.2484        470
  43.2670        427
  43.2855        437
  43.3041        421
  43.3227        448
  43.3413        420
  43.3599        457
  43.3784        440
  43.3970        456
  43.4156        445
  43.4342        438
  43.4527        441
  43.4713        460
  43.4899        436
  43.5085        453
  43.5270        396
  43.5456        446
  43.5642        472
  43.5828        463
  43.6013        490
  43.6199        495
  43.6385        491
  43.6571        453
  43.6756        485
  43.6942        451
  43.7128        466
  43.7314        457
  43.7500        486
  43.7685        441
  43.7871        471
  43.8057        437
  43.8243        395
  43.8428        415
  43.8614        427
  43.8800        438
  43.8986        399
  43.9171        429
  43.9357        454
  43.9543        398
  43.9729        408
  43.9914        442
  44.0100        424
  44.0286        445
  44.0472        452
  44.0657        439
  44.0843        382
  44.1029        454
  44.1215        425
  44.1401        435
  44.1586        429
  44.1772        429
  44.1958        433
  44.2144        418
  44.2329        417
  44.2515        459
  44.2701        519
  44.2887        507
  44.3072        521
  44.3258        564
  44.3444        553
  44.3630        527
  44.3815        546
  44.4001        503
  44.4187        562
  44.4373        513
  44.4558        526
  44.4744        566
  44.4930        536
  44.5116        552
  44.5302        549
  44.5487        600
  44.5673        668
  44.5859        679
  44.6045        676
  44.6230        563
  44.6416        551
  44.6602        504
  44.6788        542
  44.6973        527
  44.7159        555
  44.7345        484
  44.7531        434
  44.7716        452
  44.7902        442
  44.8088        419
  44.8274        383
  44.8459        450
  44.8645        438
  44.8831        429
  44.9017        439
  44.9203        448
  44.9388        395
  44.9574        407
  44.9760        439
  44.9946        428
  45.0131        446
  45.0317        441
  45.0503        406
  45.0689        436
  45.0874        413
  45.1060        400
  45.1246        430
  45.1432        436
  45.1617        420
  45.1803        425
  45.1989        433
  45.2175        404
  45.2360        401
  45.2546        395
  45.2732        402
  45.2918        425
  45.3104        440
  45.3289        425
  45.3475        426
  45.3661        433
  45.3847        426
  45.4032        517
  45.4218        480
  45.4404        522
  45.4590        494
  45.4775        507
  45.4961        511
  45.5147        454
  45.5333        458
  45.5518        425
  45.5704        484
  45.5890        489
  45.6076        437
  45.6261        432
  45.6447        448
  45.6633        441
  45.6819        454
  45.7005        402
  45.7190        405
  45.7376        425
  45.7562        425
  45.7748        384
  45.7933        434
  45.8119        398
  45.8305        445
  45.8491        446
  45.8676        432
  45.8862        482
  45.9048        477
  45.9234        463
  45.9419        463
  45.9605        454
  45.9791        468
  45.9977        449
  46.0162        505
  46.0348        416
  46.0534        457
  46.0720        425
  46.0906        437
  46.1091        423
  46.1277        465
  46.1463        429
  46.1649        408
  46.1834        447
  46.2020        399
  46.2206        395
  46.2392        422
  46.2577        425
  46.2763        421
  46.2949        409
  46.3135        481
  46.3320        474
  46.3506        548
  46.3692        583
  46.3878        653
  46.4063        620
  46.4249        558
  46.4435        466
  46.4621        457
  46.4807        531
  46.4992        551
  46.5178        569
  46.5364        518
  46.5550        518
  46.5735        485
  46.5921        510
  46.6107        495
  46.6293        509
  46.6478        463
  46.6664        549
  46.6850        535
  46.7036        500
  46.7221        500
  46.7407        461
  46.7593        469
  46.7779        489
  46.7965        518
  46.8150        486
  46.8336        472
  46.8522        511
  46.8708        504
  46.8893        575
  46.9079        570
  46.9265        624
  46.9451        650
  46.9636        677
  46.9822        768
  47.0008        724
  47.0194        802
  47.0379        825
  47.0565        727
  47.0751        720
  47.0937        696
  47.1122        701
  47.1308        667
  47.1494        639
  47.1680        592
  47.1866        617
  47.2051        537
  47.2237        503
  47.2423        504
  47.2609        506
  47.2794        440
  47.2980        449
  47.3166        445
  47.3352        465
  47.3537        467
  47.3723        442
  47.3909        421
  47.4095        443
  47.4280        404
  47.4466        484
  47.4652        463
  47.4838        503
  47.5023        483
  47.5209        495
  47.5395        475
  47.5581        559
  47.5767        561
  47.5952        567
  47.6138        539
  47.6324        598
  47.6510        524
  47.6695        514
  47.6881        504
  47.7067        496
  47.7253        498
  47.7438        477
  47.7624        460
  47.7810        466
  47.7996        474
  47.8181        436
  47.8367        491
  47.8553        440
  47.8739        433
  47.8924        405
  47.9110        418
  47.9296        423
  47.9482        462
  47.9668        456
  47.9853        454
  48.0039        421
  48.0225        409
  48.0411        435
  48.0596        430
  48.0782        422
  48.0968        438
  48.1154        421
  48.1339        384
  48.1525        422
  48.1711        430
  48.1897        403
  48.2082        444
  48.2268        444
  48.2454        420
  48.2640        440
  48.2825        417
  48.3011        440
  48.3197        425
  48.3383        438
  48.3569        448
  48.3754        465
  48.3940        432
  48.4126        441
  48.4312        434
  48.4497        437
  48.4683        443
  48.4869        414
  48.5055        434
  48.5240        425
  48.5426        420
  48.5612        412
  48.5798        407
  48.5983        426
  48.6169        440
  48.6355        423
  48.6541        435
  48.6726        437
  48.6912        451
  48.7098        430
  48.7284        492
  48.7470        470
  48.7655        495
  48.7841        490
  48.8027        476
  48.8213        505
  48.8398        508
  48.8584        477
  48.8770        494
  48.8956        476
  48.9141        492
  48.9327        496
  48.9513        547
  48.9699        530
  48.9884        494
  49.0070        514
  49.0256        462
  49.0442        489
  49.0627        477
  49.0813        511
  49.0999        473
  49.1185        423
  49.1371        447
  49.1556        472
  49.1742        442
  49.1928        390
  49.2114        443
  49.2299        440
  49.2485        434
  49.2671        446
  49.2857        412
  49.3042        430
  49.3228        464
  49.3414        417
  49.3600        442
  49.3785        448
  49.3971        454
  49.4157        528
  49.4343        470
  49.4528        492
  49.4714        505
  49.4900        474
  49.5086        484
  49.5272        508
  49.5457        469
  49.5643        498
  49.5829        506
  49.6015        490
  49.6200        494
  49.6386        462
  49.6572        437
  49.6758        433
  49.6943        456
  49.7129        444
  49.7315        494
  49.7501        456
  49.7686        451
  49.7872        471
  49.8058        450
  49.8244        463
  49.8429        446
  49.8615        471
  49.8801        449
  49.8987        466
  49.9173        404
  49.9358        461
  49.9544        471
  49.9730        415
  49.9916        484
  50.0101        419
  50.0287        450
  50.0473        425
  50.0659        393
  50.0844        409
  50.1030        413
  50.1216        411
  50.1402        414
  50.1587        428
  50.1773        421
  50.1959        462
  50.2145        413
  50.2330        431
  50.2516        416
  50.2702        425
  50.2888        415
  50.3074        428
  50.3259        422
  50.3445        413
  50.3631        424
  50.3817        450
  50.4002        428
  50.4188        419
  50.4374        427
  50.4560        406
  50.4745        431
  50.4931        415
  50.5117        437
  50.5303        392
  50.5488        433
  50.5674        405
  50.5860        455
  50.6046        445
  50.6231        471
  50.6417        435
  50.6603        447
  50.6789        467
  50.6975        457
  50.7160        425
  50.7346        411
  50.7532        459
  50.7718        422
  50.7903        410
  50.8089        411
  50.8275        422
  50.8461        430
  50.8646        418
  50.8832        424
  50.9018        431
  50.9204        417
  50.9389        399
  50.9575        451
  50.9761        435
  50.9947        430
  51.0132        399
  51.0318        444
  51.0504        440
  51.0690        409
  51.0876        430
  51.1061        420
  51.1247        463
  51.1433        418
  51.1619        431
  51.1804        445
  51.1990        408
  51.2176        406
  51.2362        409
  51.2547        423
  51.2733        437
  51.2919        432
  51.3105        453
  51.3290        435
  51.3476        459
  51.3662        455
  51.3848        478
  51.4033        438
  51.4219        456
  51.4405        462
  51.4591        460
  51.4777        536
  51.4962        494
  51.5148        491
  51.5334        463
  51.5520        462
  51.5705        456
  51.5891        467
  51.6077        460
  51.6263        440
  51.6448        415
  51.6634        461
  51.6820        442
  51.7006        453
  51.7191        410
  51.7377        418
  51.7563        432
  51.7749        456
  51.7934        417
  51.8120        406
  51.8306        428
  51.8492        433
  51.8678        407
  51.8863        378
  51.9049        415
  51.9235        449
  51.9421        388
  51.9606        394
  51.9792        441
  51.9978        463
  52.0164        431
  52.0349        387
  52.0535        425
  52.0721        380
  52.0907        414
  52.1092        390
  52.1278        426
  52.1464        380
  52.1650        397
  52.1835        428
  52.2021        421
  52.2207        425
  52.2393        399
  52.2579        427
  52.2764        432
  52.2950        444
  52.3136        435
  52.3322        409
  52.3507        358
  52.3693        380
  52.3879        427
  52.4065        393
  52.4250        411
  52.4436        444
  52.4622        407
  52.4808        386
  52.4993        407
  52.5179        406
  52.5365        399
  52.5551        461
  52.5736        503
  52.5922        555
  52.6108        518
  52.6294        479
  52.6480        443
  52.6665        461
  52.6851        443
  52.7037        463
  52.7223        528
  52.7408        489
  52.7594        506
  52.7780        464
  52.7966        489
  52.8151        466
  52.8337        558
  52.8523        575
  52.8709        504
  52.8894        513
  52.9080        497
  52.9266        548
  52.9452        538
  52.9637        523
  52.9823        556
  53.0009        554
  53.0195        501
  53.0381        514
  53.0566        484
  53.0752        459
  53.0938        455
  53.1124        456
  53.1309        452
  53.1495        441
  53.1681        444
  53.1867        420
  53.2052        411
  53.2238        400
  53.2424        462
  53.2610        428
  53.2795        383
  53.2981        451
  53.3167        423
  53.3353        432
  53.3538        403
  53.3724        404
  53.3910        381
  53.4096        420
  53.4282        454
  53.4467        442
  53.4653        448
  53.4839        491
  53.5025        474
  53.5210        480
  53.5396        517
  53.5582        457
  53.5768        505
  53.5953        468
  53.6139        469
  53.6325        488
  53.6511        462
  53.6696        505
  53.6882        498
  53.7068        451
  53.7254        461
  53.7439        479
  53.7625        443
  53.7811        404
  53.7997        385
  53.8183        459
  53.8368        439
  53.8554        421
  53.8740        426
  53.8926        397
  53.9111        396
  53.9297        440
  53.9483        409
  53.9669        415
  53.9854        400
  54.0040        413
  54.0226        413
  54.0412        421
  54.0597        406
  54.0783        418
  54.0969        429
  54.1155        410
  54.1340        441
  54.1526        392
  54.1712        431
  54.1898        405
  54.2084        401
  54.2269        442
  54.2455        410
  54.2641        425
  54.2827        401
  54.3012        440
  54.3198        401
  54.3384        367
  54.3570        379
  54.3755        463
  54.3941        405
  54.4127        422
  54.4313        399
  54.4498        427
  54.4684        422
  54.4870        419
  54.5056        422
  54.5241        402
  54.5427        433
  54.5613        374
  54.5799        419
  54.5985        436
  54.6170        387
  54.6356        443
  54.6542        429
  54.6728        416
  54.6913        402
  54.7099        449
  54.7285        445
  54.7471        376
  54.7656        398
  54.7842        386
  54.8028        394
  54.8214        376
  54.8399        434
  54.8585        402
  54.8771        400
  54.8957        404
  54.9142        405
  54.9328        383
  54.9514        402
  54.9700        422
  54.9886        401
  55.0071        371
  55.0257        415
  55.0443        367
  55.0629        414
  55.0814        415
  55.1000        440
  55.1186        412
  55.1372        422
  55.1557        459
  55.1743        444
  55.1929        445
  55.2115        438
  55.2300        512
  55.2486        489
  55.2672        463
  55.2858        446
  55.3043        424
  55.3229        422
  55.3415        429
  55.3601        432
  55.3787        427
  55.3972        476
  55.4158        403
  55.4344        437
  55.4530        431
  55.4715        423
  55.4901        433
  55.5087        447
  55.5273        395
  55.5458        417
  55.5644        413
  55.5830        397
  55.6016        377
  55.6201        440
  55.6387        413
  55.6573        418
  55.6759        394
  55.6944        369
  55.7130        402
  55.7316        402
  55.7502        413
  55.7688        383
  55.7873        401
  55.8059        387
  55.8245        442
  55.8431        407
  55.8616        400
  55.8802        419
  55.8988        414
  55.9174        366
  55.9359        387
  55.9545        403
  55.9731        368
  55.9917        373
  56.0102        383
  56.0288        431
  56.0474        419
  56.0660        419
  56.0846        421
  56.1031        421
  56.1217        430
  56.1403        433
  56.1589        434
  56.1774        429
  56.1960        415
  56.2146        415
  56.2332        437
  56.2517        398
  56.2703        386
  56.2889        421
  56.3075        407
  56.3260        403
  56.3446        426
  56.3632        426
  56.3818        427
  56.4003        396
  56.4189        409
  56.4375        400
  56.4561        420
  56.4747        406
  56.4932        432
  56.5118        369
  56.5304        401
  56.5490        404
  56.5675        402
  56.5861        418
  56.6047        406
  56.6233        416
  56.6418        425
  56.6604        419
  56.6790        444
  56.6976        387
  56.7161        410
  56.7347        428
  56.7533        391
  56.7719        408
  56.7904        465
  56.8090        446
  56.8276        516
  56.8462        527
  56.8648        592
  56.8833        577
  56.9019        537
  56.9205        455
  56.9391        478
  56.9576        453
  56.9762        462
  56.9948        501
  57.0134        523
  57.0319        489
  57.0505        457
  57.0691        456
  57.0877        448
  57.1062        401
  57.1248        431
  57.1434        414
  57.1620        433
  57.1805        418
  57.1991        414
  57.2177        438
  57.2363        421
  57.2549        412
  57.2734        418
  57.2920        411
  57.3106        454
  57.3292        442
  57.3477        427
  57.3663        417
  57.3849        495
  57.4035        505
  57.4220        564
  57.4406        678
  57.4592        801
  57.4778        833
  57.4963        813
  57.5149        664
  57.5335        601
  57.5521        535
  57.5706        521
  57.5892        522
  57.6078        625
  57.6264        614
  57.6450        646
  57.6635        556
  57.6821        510
  57.7007        498
  57.7193        458
  57.7378        409
  57.7564        427
  57.7750        432
  57.7936        404
  57.8121        425
  57.8307        424
  57.8493        408
  57.8679        410
  57.8864        442
  57.9050        432
  57.9236        396
  57.9422        407
  57.9607        400
  57.9793        406
  57.9979        385
  58.0165        398
  58.0351        440
  58.0536        439
  58.0722        377
  58.0908        399
  58.1094        440
  58.1279        395
  58.1465        418
  58.1651        429
  58.1837        411
  58.2022        439
  58.2208        432
  58.2394        418
  58.2580        382
  58.2765        419
  58.2951        448
  58.3137        443
  58.3323        471
  58.3508        414
  58.3694        467
  58.3880        427
  58.4066        443
  58.4252        431
  58.4437        371
  58.4623        435
  58.4809        406
  58.4995        423
  58.5180        469
  58.5366        383
  58.5552        433
  58.5738        416
  58.5923        413
  58.6109        417
  58.6295        417
  58.6481        417
  58.6666        446
  58.6852        439
  58.7038        421
  58.7224        447
  58.7409        460
  58.7595        450
  58.7781        463
  58.7967        467
  58.8153        459
  58.8338        457
  58.8524        497
  58.8710        521
  58.8896        609
  58.9081        679
  58.9267        682
  58.9453        731
  58.9639        681
  58.9824        716
  59.0010        741
  59.0196        730
  59.0382        833
  59.0567        751
  59.0753        754
  59.0939        714
  59.1125        697
  59.1310        646
  59.1496        572
  59.1682        657
  59.1868        638
  59.2054        588
  59.2239        584
  59.2425        513
  59.2611        494
  59.2797        498
  59.2982        454
  59.3168        444
  59.3354        427
  59.3540        448
  59.3725        426
  59.3911        408
  59.4097        411
  59.4283        418
  59.4468        458
  59.4654        406
  59.4840        456
  59.5026        438
  59.5211        420
  59.5397        409
  59.5583        446
  59.5769        408
  59.5955        430
  59.6140        403
  59.6326        422
  59.6512        435
  59.6698        400
  59.6883        413
  59.7069        407
  59.7255        419
  59.7441        398
  59.7626        398
  59.7812        399
  59.7998        421
  59.8184        358
  59.8369        458
  59.8555        406
  59.8741        410
  59.8927        381
  59.9112        418
  59.9298        465
  59.9484        417
  59.9670        423
