   5.0000       1999
   5.0186       1986
   5.0372       1956
   5.0557       1978
   5.0743       1954
   5.0929       1926
   5.1115       1872
   5.1300       1908
   5.1486       1944
   5.1672       1924
   5.1858       1958
   5.2043       1891
   5.2229       1858
   5.2415       1847
   5.2601       1830
   5.2786       1807
   5.2972       1857
   5.3158       1868
   5.3344       1794
   5.3529       1772
   5.3715       1762
   5.3901       1803
   5.4087       1786
   5.4273       1715
   5.4458       1757
   5.4644       1718
   5.4830       1719
   5.5016       1665
   5.5201       1745
   5.5387       1665
   5.5573       1745
   5.5759       1657
   5.5944       1681
   5.6130       1717
   5.6316       1730
   5.6502       1684
   5.6687       1718
   5.6873       1646
   5.7059       1643
   5.7245       1638
   5.7430       1636
   5.7616       1686
   5.7802       1673
   5.7988       1545
   5.8174       1636
   5.8359       1592
   5.8545       1504
   5.8731       1520
   5.8917       1551
   5.9102       1566
   5.9288       1553
   5.9474       1519
   5.9660       1499
   5.9845       1461
   6.0031       1531
   6.0217       1483
   6.0403       1492
   6.0588       1463
   6.0774       1452
   6.0960       1474
   6.1146       1493
   6.1331       1479
   6.1517       1442
   6.1703       1533
   6.1889       1522
   6.2075       1410
   6.2260       1404
   6.2446       1378
   6.2632       1469
   6.2818       1338
   6.3003       1405
   6.3189       1422
   6.3375       1353
   6.3561       1408
   6.3746       1376
   6.3932       1395
   6.4118       1402
   6.4304       1304
   6.4489       1322
   6.4675       1384
   6.4861       1351
   6.5047       1428
   6.5232       1312
   6.5418       1333
   6.5604       1309
   6.5790       1302
   6.5976       1327
   6.6161       1367
   6.6347       1301
   6.6533       1308
   6.6719       1309
   6.6904       1243
   6.7090       1328
   6.7276       1317
   6.7462       1309
   6.7647       1253
   6.7833       1320
   6.8019       1310
   6.8205       1293
   6.8390       1241
   6.8576       1226
   6.8762       1233
   6.8948       1205
   6.9133       1222
   6.9319       1284
   6.9505       1189
   6.9691       1199
   6.9877       1240
   7.0062       1179
   7.0248       1235
   7.0434       1181
   7.0620       1164
   7.0805       1245
   7.0991       1218
   7.1177       1188
   7.1363       1205
   7.1548       1143
   7.1734       1181
   7.1920       1173
   7.2106       1177
   7.2291       1258
   7.2477       1203
   7.2663       1170
   7.2849       1203
   7.3034       1195
   7.3220       1198
   7.3406       1117
   7.3592       1178
   7.3778       1164
   7.3963       1200
   7.4149       1204
   7.4335       1150
   7.4521       1219
   7.4706       1141
   7.4892       1142
   7.5078       1147
   7.5264       1161
   7.5449       1133
   7.5635       1155
   7.5821       1208
   7.6007       1197
   7.6192       1156
   7.6378       1195
   7.6564       1198
   7.6750       1179
   7.6935       1140
   7.7121       1152
   7.7307       1151
   7.7493       1186
   7.7679       1192
   7.7864       1165
   7.8050       1169
   7.8236       1160
   7.8422       1165
   7.8607       1143
   7.8793       1146
   7.8979       1203
   7.9165       1124
   7.9350       1186
   7.9536       1132
   7.9722       1134
   7.9908       1127
   8.0093       1181
   8.0279       1156
   8.0465       1192
   8.0651       1189
   8.0836       1193
   8.1022       1156
   8.1208       1250
   8.1394       1234
   8.1580       1137
   8.1765       1177
   8.1951       1209
   8.2137       1179
   8.2323       1139
   8.2508       1158
   8.2694       1170
   8.2880       1171
   8.3066       1174
   8.3251       1175
   8.3437       1176
   8.3623       1165
   8.3809       1243
   8.3994       1164
   8.4180       1082
   8.4366       1131
   8.4552       1142
   8.4737       1160
   8.4923       1174
   8.5109       1125
   8.5295       1217
   8.5481       1185
   8.5666       1190
   8.5852       1173
   8.6038       1177
   8.6224       1222
   8.6409       1161
   8.6595       1202
   8.6781       1119
   8.6967       1144
   8.7152       1195
   8.7338       1143
   8.7524       1188
   8.7710       1199
   8.7895       1131
   8.8081       1146
   8.8267       1150
   8.8453       1195
   8.8638       1165
   8.8824       1162
   8.9010       1203
   8.9196       1229
   8.9382       1210
   8.9567       1148
   8.9753       1141
   8.9939       1146
   9.0125       1258
   9.0310       1158
   9.0496       1185
   9.0682       1180
   9.0868       1169
   9.1053       1172
   9.1239       1144
   9.1425       1141
   9.1611       1182
   9.1796       1223
   9.1982       1156
   9.2168       1179
   9.2354       1167
   9.2539       1134
   9.2725       1165
   9.2911       1193
   9.3097       1174
   9.3283       1151
   9.3468       1161
   9.3654       1126
   9.3840       1205
   9.4026       1054
   9.4211       1121
   9.4397       1144
   9.4583       1157
   9.4769       1135
   9.4954       1183
   9.5140       1170
   9.5326       1155
   9.5512       1137
   9.5697       1145
   9.5883       1170
   9.6069       1117
   9.6255       1136
   9.6441       1127
   9.6626       1168
   9.6812       1247
   9.6998       1166
   9.7184       1119
   9.7369       1153
   9.7555       1082
   9.7741       1232
   9.7927       1146
   9.8112       1182
   9.8298       1155
   9.8484       1255
   9.8670       1136
   9.8855       1144
   9.9041       1203
   9.9227       1107
   9.9413       1184
   9.9598       1074
   9.9784       1109
   9.9970       1129
  10.0156       1148
  10.0342       1178
  10.0527       1137
  10.0713       1141
  10.0899       1114
  10.1085       1131
  10.1270       1187
  10.1456       1176
  10.1642       1102
  10.1828       1214
  10.2013       1196
  10.2199       1127
  10.2385       1178
  10.2571       1147
  10.2756       1149
  10.2942       1145
  10.3128       1071
  10.3314       1182
  10.3499       1156
  10.3685       1097
  10.3871       1156
  10.4057       1149
  10.4243       1186
  10.4428       1181
  10.4614       1127
  10.4800       1122
  10.4986       1132
  10.5171       1112
  10.5357       1135
  10.5543       1125
  10.5729       1099
  10.5914       1113
  10.6100       1152
  10.6286       1151
  10.6472       1113
  10.6657       1127
  10.6843       1121
  10.7029       1103
  10.7215       1144
  10.7400       1143
  10.7586       1132
  10.7772       1094
  10.7958       1090
  10.8144       1103
  10.8329       1112
  10.8515       1088
  10.8701       1080
  10.8887       1094
  10.9072       1085
  10.9258       1190
  10.9444       1112
  10.9630       1150
  10.9815       1098
  11.0001       1080
  11.0187       1069
  11.0373       1006
  11.0558       1075
  11.0744       1069
  11.0930       1120
  11.1116       1065
  11.1301       1092
  11.1487       1089
  11.1673       1037
  11.1859       1120
  11.2045       1066
  11.2230       1099
  11.2416       1047
  11.2602       1069
  11.2788       1106
  11.2973       1087
  11.3159       1070
  11.3345       1063
  11.3531       1109
  11.3716       1096
  11.3902       1017
  11.4088       1115
  11.4274       1111
  11.4459       1081
  11.4645       1053
  11.4831       1035
  11.5017       1045
  11.5202       1056
  11.5388       1055
  11.5574       1085
  11.5760       1056
  11.5946       1008
  11.6131       1066
  11.6317       1046
  11.6503       1121
  11.6689       1064
  11.6874       1055
  11.7060       1122
  11.7246       1071
  11.7432       1084
  11.7617       1130
  11.7803       1098
  11.7989       1076
  11.8175       1108
  11.8360       1088
  11.8546       1186
  11.8732       1225
  11.8918       1283
  11.9103       1373
  11.9289       1488
  11.9475       1464
  11.9661       1439
  11.9847       1403
  12.0032       1398
  12.0218       1329
  12.0404       1184
  12.0590       1080
  12.0775       1051
  12.0961       1069
  12.1147       1060
  12.1333       1076
  12.1518       1056
  12.1704       1012
  12.1890       1111
  12.2076       1030
  12.2261       1035
  12.2447       1004
  12.2633        992
  12.2819       1012
  12.3004        988
  12.3190       1047
  12.3376        953
  12.3562       1044
  12.3748       1007
  12.3933        972
  12.4119       1000
  12.4305        964
  12.4491       1029
  12.4676        995
  12.4862        981
  12.5048       1026
  12.5234       1012
  12.5419       1010
  12.5605        984
  12.5791        974
  12.5977       1021
  12.6162        942
  12.6348        929
  12.6534        963
  12.6720        935
  12.6905        955
  12.7091        950
  12.7277        976
  12.7463        994
  12.7649        990
  12.7834        945
  12.8020        964
  12.8206       1009
  12.8392        927
  12.8577        942
  12.8763        938
  12.8949        948
  12.9135       1002
  12.9320       1006
  12.9506        970
  12.9692        939
  12.9878        916
  13.0063        915
  13.0249        978
  13.0435       1000
  13.0621        980
  13.0806        912
  13.0992        934
  13.1178        929
  13.1364        968
  13.1550        924
  13.1735        930
  13.1921        894
  13.2107        961
  13.2293        958
  13.2478        906
  13.2664        914
  13.2850        882
  13.3036        960
  13.3221        886
  13.3407        967
  13.3593        917
  13.3779        915
  13.3964        921
  13.4150        932
  13.4336        915
  13.4522        880
  13.4707        910
  13.4893        967
  13.5079        916
  13.5265        867
  13.5451        905
  13.5636        907
  13.5822        944
  13.6008        915
  13.6194        891
  13.6379        885
  13.6565        928
  13.6751        938
  13.6937        863
  13.7122        882
  13.7308        961
  13.7494        920
  13.7680        893
  13.7865        894
  13.8051        922
  13.8237        960
  13.8423        894
  13.8608        857
  13.8794        851
  13.8980        845
  13.9166        885
  13.9352        879
  13.9537        901
  13.9723        863
  13.9909        889
  14.0095        868
  14.0280        885
  14.0466        885
  14.0652        879
  14.0838        862
  14.1023        842
  14.1209        869
  14.1395        870
  14.1581        868
  14.1766        832
  14.1952        858
  14.2138        841
  14.2324        790
  14.2509        887
  14.2695        814
  14.2881        860
  14.3067        838
  14.3253        847
  14.3438        860
  14.3624        854
  14.3810        851
  14.3996        807
  14.4181        888
  14.4367        842
  14.4553        838
  14.4739        830
  14.4924        869
  14.5110        848
  14.5296        829
  14.5482        901
  14.5667        834
  14.5853        806
  14.6039        830
  14.6225        809
  14.6410        875
  14.6596        820
  14.6782        835
  14.6968        793
  14.7154        852
  14.7339        853
  14.7525        821
  14.7711        859
  14.7897        838
  14.8082        817
  14.8268        821
  14.8454        848
  14.8640        843
  14.8825        815
  14.9011        804
  14.9197        868
  14.9383        822
  14.9568        800
  14.9754        829
  14.9940        853
  15.0126        797
  15.0311        758
  15.0497        823
  15.0683        797
  15.0869        782
  15.1055        822
  15.1240        811
  15.1426        816
  15.1612        774
  15.1798        834
  15.1983        802
  15.2169        747
  15.2355        806
  15.2541        798
  15.2726        808
  15.2912        797
  15.3098        871
  15.3284        822
  15.3469        769
  15.3655        782
  15.3841        800
  15.4027        816
  15.4212        853
  15.4398        785
  15.4584        794
  15.4770        819
  15.4956        829
  15.5141        827
  15.5327        821
  15.5513        786
  15.5699        813
  15.5884        785
  15.6070        795
  15.6256        771
  15.6442        778
  15.6627        826
  15.6813        811
  15.6999        789
  15.7185        783
  15.7370        807
  15.7556        772
  15.7742        745
  15.7928        798
  15.8113        775
  15.8299        789
  15.8485        799
  15.8671        772
  15.8857        803
  15.9042        777
  15.9228        790
  15.9414        786
  15.9600        779
  15.9785        760
  15.9971        809
  16.0157        783
  16.0343        780
  16.0528        820
  16.0714        771
  16.0900        843
  16.1086        821
  16.1271        771
  16.1457        782
  16.1643        766
  16.1829        783
  16.2014        809
  16.2200        823
  16.2386        811
  16.2572        852
  16.2758        771
  16.2943        817
  16.3129        824
  16.3315        832
  16.3501        728
  16.3686        819
  16.3872        776
  16.4058        769
  16.4244        799
  16.4429        815
  16.4615        817
  16.4801        787
  16.4987        832
  16.5172        782
  16.5358        815
  16.5544        817
  16.5730        736
  16.5915        761
  16.6101        798
  16.6287        786
  16.6473        770
  16.6659        821
  16.6844        799
  16.7030        801
  16.7216        800
  16.7402        810
  16.7587        771
  16.7773        758
  16.7959        744
  16.8145        766
  16.8330        780
  16.8516        785
  16.8702        807
  16.8888        829
  16.9073        802
  16.9259        803
  16.9445        786
  16.9631        784
  16.9816        735
  17.0002        766
  17.0188        821
  17.0374        795
  17.0560        767
  17.0745        826
  17.0931        767
  17.1117        744
  17.1303        810
  17.1488        786
  17.1674        796
  17.1860        807
  17.2046        808
  17.2231        829
  17.2417        801
  17.2603        855
  17.2789        781
  17.2974        831
  17.3160        782
  17.3346        754
  17.3532        745
  17.3717        728
  17.3903        785
  17.4089        786
  17.4275        801
  17.4461        779
  17.4646        780
  17.4832        789
  17.5018        817
  17.5204        759
  17.5389        802
  17.5575        790
  17.5761        795
  17.5947        768
  17.6132        775
  17.6318        788
  17.6504        785
  17.6690        766
  17.6875        763
  17.7061        825
  17.7247        801
  17.7433        817
  17.7618        741
  17.7804        811
  17.7990        766
  17.8176        796
  17.8362        781
  17.8547        783
  17.8733        792
  17.8919        806
  17.9105        816
  17.9290        737
  17.9476        822
  17.9662        802
  17.9848        794
  18.0033        830
  18.0219        759
  18.0405        814
  18.0591        777
  18.0776        804
  18.0962        773
  18.1148        811
  18.1334        836
  18.1519        818
  18.1705        796
  18.1891        753
  18.2077        860
  18.2263        783
  18.2448        825
  18.2634        766
  18.2820        807
  18.3006        821
  18.3191        801
  18.3377        826
  18.3563        824
  18.3749        781
  18.3934        794
  18.4120        840
  18.4306        788
  18.4492        791
  18.4677        773
  18.4863        836
  18.5049        803
  18.5235        800
  18.5420        808
  18.5606        781
  18.5792        790
  18.5978        786
  18.6164        797
  18.6349        783
  18.6535        802
  18.6721        823
  18.6907        805
  18.7092        811
  18.7278        805
  18.7464        776
  18.7650        774
  18.7835        769
  18.8021        835
  18.8207        809
  18.8393        838
  18.8578        855
  18.8764        851
  18.8950        806
  18.9136        823
  18.9322        813
  18.9507        789
  18.9693        782
  18.9879        830
  19.0065        842
  19.0250        788
  19.0436        748
  19.0622        752
  19.0808        794
  19.0993        825
  19.1179        823
  19.1365        801
  19.1551        830
  19.1736        808
  19.1922        832
  19.2108        771
  19.2294        837
  19.2479        816
  19.2665        846
  19.2851        842
  19.3037        827
  19.3223        836
  19.3408        794
  19.3594        835
  19.3780        804
  19.3966        791
  19.4151        779
  19.4337        763
  19.4523        797
  19.4709        800
  19.4894        814
  19.5080        781
  19.5266        870
  19.5452        801
  19.5637        761
  19.5823        806
  19.6009        825
  19.6195        760
  19.6380        808
  19.6566        873
  19.6752        835
  19.6938        830
  19.7124        833
  19.7309        762
  19.7495        839
  19.7681        855
  19.7867        829
  19.8052        819
  19.8238        830
  19.8424        814
  19.8610        785
  19.8795        780
  19.8981        775
  19.9167        846
  19.9353        854
  19.9538        825
  19.9724        834
  19.9910        864
  20.0096        837
  20.0281        836
  20.0467        818
  20.0653        775
  20.0839        842
  20.1025        815
  20.1210        851
  20.1396        824
  20.1582        815
  20.1768        820
  20.1953        831
  20.2139        874
  20.2325        805
  20.2511        825
  20.2696        794
  20.2882        849
  20.3068        793
  20.3254        764
  20.3439        796
  20.3625        818
  20.3811        834
  20.3997        850
  20.4182        831
  20.4368        877
  20.4554        799
  20.4740        825
  20.4926        862
  20.5111        829
  20.5297        904
  20.5483        835
  20.5669        812
  20.5854        880
  20.6040        871
  20.6226        902
  20.6412        848
  20.6597        887
  20.6783        824
  20.6969        836
  20.7155        834
  20.7340        856
  20.7526        827
  20.7712        815
  20.7898        818
  20.8083        814
  20.8269        853
  20.8455        834
  20.8641        775
  20.8827        914
  20.9012        829
  20.9198        789
  20.9384        806
  20.9570        786
  20.9755        820
  20.9941        769
  21.0127        825
  21.0313        824
  21.0498        868
  21.0684        872
  21.0870        808
  21.1056        831
  21.1241        837
  21.1427        858
  21.1613        815
  21.1799        844
  21.1984        797
  21.2170        851
  21.2356        857
  21.2542        789
  21.2728        797
  21.2913        810
  21.3099        888
  21.3285        878
  21.3471        802
  21.3656        870
  21.3842        805
  21.4028        826
  21.4214        820
  21.4399        801
  21.4585        820
  21.4771        783
  21.4957        782
  21.5142        844
  21.5328        789
  21.5514        803
  21.5700        861
  21.5885        785
  21.6071        827
  21.6257        808
  21.6443        873
  21.6629        869
  21.6814        862
  21.7000        833
  21.7186        841
  21.7372        846
  21.7557        863
  21.7743        794
  21.7929        851
  21.8115        845
  21.8300        806
  21.8486        811
  21.8672        830
  21.8858        778
  21.9043        811
  21.9229        842
  21.9415        885
  21.9601        820
  21.9786        792
  21.9972        807
  22.0158        877
  22.0344        831
  22.0530        841
  22.0715        842
  22.0901        832
  22.1087        825
  22.1273        840
  22.1458        852
  22.1644        809
  22.1830        801
  22.2016        849
  22.2201        828
  22.2387        857
  22.2573        805
  22.2759        810
  22.2944        855
  22.3130        919
  22.3316        883
  22.3502        806
  22.3687        870
  22.3873        827
  22.4059        855
  22.4245        890
  22.4431        899
  22.4616        913
  22.4802        854
  22.4988        843
  22.5174        917
  22.5359        854
  22.5545        870
  22.5731        868
  22.5917        865
  22.6102        886
  22.6288        822
  22.6474        868
  22.6660        899
  22.6845        871
  22.7031        898
  22.7217        907
  22.7403        849
  22.7588        822
  22.7774        898
  22.7960        913
  22.8146        939
  22.8332        937
  22.8517       1008
  22.8703       1141
  22.8889       1315
  22.9075       1426
  22.9260       1675
  22.9446       1724
  22.9632       1929
  22.9818       1792
  23.0003       1663
  23.0189       1587
  23.0375       1386
  23.0561       1161
  23.0746       1048
  23.0932       1006
  23.1118        933
  23.1304        914
  23.1489        945
  23.1675        919
  23.1861        981
  23.2047        962
  23.2233        951
  23.2418        955
  23.2604        981
  23.2790        978
  23.2976       1026
  23.3161        987
  23.3347        963
  23.3533        968
  23.3719        960
  23.3904        857
  23.4090        875
  23.4276        842
  23.4462        846
  23.4647        868
  23.4833        881
  23.5019        853
  23.5205        915
  23.5390        822
  23.5576        856
  23.5762        893
  23.5948        859
  23.6134        864
  23.6319        798
  23.6505        812
  23.6691        809
  23.6877        805
  23.7062        844
  23.7248        854
  23.7434        853
  23.7620        860
  23.7805        879
  23.7991        868
  23.8177        831
  23.8363        880
  23.8548        959
  23.8734       1007
  23.8920       1005
  23.9106       1089
  23.9291       1102
  23.9477       1136
  23.9663       1086
  23.9849       1121
  24.0035       1108
  24.0220       1219
  24.0406       1268
  24.0592       1319
  24.0778       1326
  24.0963       1382
  24.1149       1389
  24.1335       1209
  24.1521       1138
  24.1706       1085
  24.1892       1032
  24.2078        919
  24.2264        916
  24.2449        866
  24.2635        831
  24.2821        853
  24.3007        813
  24.3192        799
  24.3378        815
  24.3564        848
  24.3750        797
  24.3936        808
  24.4121        772
  24.4307        812
  24.4493        824
  24.4679        802
  24.4864        782
  24.5050        824
  24.5236        856
  24.5422        846
  24.5607        831
  24.5793        764
  24.5979        785
  24.6165        870
  24.6350        803
  24.6536        803
  24.6722        783
  24.6908        830
  24.7093        875
  24.7279        786
  24.7465        806
  24.7651        821
  24.7837        756
  24.8022        787
  24.8208        846
  24.8394        835
  24.8580        835
  24.8765        804
  24.8951        797
  24.9137        866
  24.9323        779
  24.9508        777
  24.9694        800
  24.9880        783
  25.0066        820
  25.0251        796
  25.0437        807
  25.0623        813
  25.0809        823
  25.0994        780
  25.1180        854
  25.1366        779
  25.1552        781
  25.1738        813
  25.1923        816
  25.2109        821
  25.2295        778
  25.2481        832
  25.2666        840
  25.2852        806
  25.3038        793
  25.3224        843
  25.3409        766
  25.3595        757
  25.3781        801
  25.3967        739
  25.4152        805
  25.4338        794
  25.4524        797
  25.4710        839
  25.4895        846
  25.5081        777
  25.5267        803
  25.5453        764
  25.5639        785
  25.5824        805
  25.6010        804
  25.6196        765
  25.6382        792
  25.6567        778
  25.6753        775
  25.6939        774
  25.7125        783
  25.7310        777
  25.7496        800
  25.7682        823
  25.7868        789
  25.8053        799
  25.8239        748
  25.8425        792
  25.8611        822
  25.8796        833
  25.8982        903
  25.9168        842
  25.9354        850
  25.9540        842
  25.9725        875
  25.9911        934
  26.0097        894
  26.0283        830
  26.0468        859
  26.0654        840
  26.0840        798
  26.1026        840
  26.1211        817
  26.1397        837
  26.1583        899
  26.1769        802
  26.1954        841
  26.2140        811
  26.2326        776
  26.2512        847
  26.2697        843
  26.2883        841
  26.3069        768
  26.3255        787
  26.3441        769
  26.3626        783
  26.3812        792
  26.3998        781
  26.4184        749
  26.4369        771
  26.4555        814
  26.4741        776
  26.4927        709
  26.5112        764
  26.5298        793
  26.5484        737
  26.5670        769
  26.5855        748
  26.6041        744
  26.6227        757
  26.6413        784
  26.6598        765
  26.6784        767
  26.6970        803
  26.7156        749
  26.7342        782
  26.7527        745
  26.7713        759
  26.7899        733
  26.8085        729
  26.8270        735
  26.8456        716
  26.8642        744
  26.8828        779
  26.9013        709
  26.9199        737
  26.9385        757
  26.9571        749
  26.9756        704
  26.9942        778
  27.0128        716
  27.0314        738
  27.0499        709
  27.0685        743
  27.0871        796
  27.1057        797
  27.1243        749
  27.1428        802
  27.1614        751
  27.1800        738
  27.1986        764
  27.2171        713
  27.2357        761
  27.2543        787
  27.2729        789
  27.2914        728
  27.3100        731
  27.3286        699
  27.3472        742
  27.3657        739
  27.3843        740
  27.4029        760
  27.4215        762
  27.4400        753
  27.4586        701
  27.4772        755
  27.4958        703
  27.5144        729
  27.5329        711
  27.5515        751
  27.5701        763
  27.5887        720
  27.6072        757
  27.6258        686
  27.6444        786
  27.6630        677
  27.6815        711
  27.7001        741
  27.7187        736
  27.7373        745
  27.7558        707
  27.7744        740
  27.7930        822
  27.8116        776
  27.8301        756
  27.8487        717
  27.8673        796
  27.8859        814
  27.9045        761
  27.9230        701
  27.9416        750
  27.9602        761
  27.9788        741
  27.9973        740
  28.0159        724
  28.0345        698
  28.0531        740
  28.0716        726
  28.0902        767
  28.1088        750
  28.1274        708
  28.1459        705
  28.1645        709
  28.1831        749
  28.2017        706
  28.2203        711
  28.2388        699
  28.2574        708
  28.2760        674
  28.2946        729
  28.3131        724
  28.3317        740
  28.3503        762
  28.3689        719
  28.3874        756
  28.4060        762
  28.4246        818
  28.4432        839
  28.4617        899
  28.4803        963
  28.4989        954
  28.5175       1043
  28.5360       1020
  28.5546        992
  28.5732       1002
  28.5918        981
  28.6104        881
  28.6289        876
  28.6475        899
  28.6661        837
  28.6847        775
  28.7032        814
  28.7218        750
  28.7404        751
  28.7590        715
  28.7775        691
  28.7961        751
  28.8147        706
  28.8333        749
  28.8518        713
  28.8704        740
  28.8890        731
  28.9076        668
  28.9261        736
  28.9447        678
  28.9633        672
  28.9819        727
  29.0005        777
  29.0190        732
  29.0376        740
  29.0562        709
  29.0748        746
  29.0933        783
  29.1119        714
  29.1305        744
  29.1491        764
  29.1676        709
  29.1862        683
  29.2048        719
  29.2234        682
  29.2419        715
  29.2605        696
  29.2791        641
  29.2977        664
  29.3162        724
  29.3348        680
  29.3534        710
  29.3720        660
  29.3906        720
  29.4091        704
  29.4277        689
  29.4463        682
  29.4649        698
  29.4834        660
  29.5020        632
  29.5206        691
  29.5392        650
  29.5577        707
  29.5763        645
  29.5949        685
  29.6135        717
  29.6320        706
  29.6506        726
  29.6692        722
  29.6878        750
  29.7063        759
  29.7249        748
  29.7435        730
  29.7621        721
  29.7807        664
  29.7992        728
  29.8178        736
  29.8364        702
  29.8550        732
  29.8735        709
  29.8921        681
  29.9107        634
  29.9293        705
  29.9478        640
  29.9664        666
  29.9850        638
  30.0036        625
  30.0221        618
  30.0407        666
  30.0593        609
  30.0779        649
  30.0964        700
  30.1150        645
  30.1336        644
  30.1522        615
  30.1708        615
  30.1893        665
  30.2079        673
  30.2265        667
  30.2451        640
  30.2636        671
  30.2822        680
  30.3008        673
  30.3194        694
  30.3379        709
  30.3565        670
  30.3751        745
  30.3937        745
  30.4122        793
  30.4308        790
  30.4494        784
  30.4680        864
  30.4865        796
  30.5051        883
  30.5237        830
  30.5423        816
  30.5609        809
  30.5794        767
  30.5980        762
  30.6166        745
  30.6352        710
  30.6537        740
  30.6723        701
  30.6909        695
  30.7095        695
  30.7280        673
  30.7466        604
  30.7652        630
  30.7838        661
  30.8023        653
  30.8209        669
  30.8395        620
  30.8581        624
  30.8766        608
  30.8952        632
  30.9138        627
  30.9324        631
  30.9510        663
  30.9695        635
  30.9881        693
  31.0067        626
  31.0253        613
  31.0438        608
  31.0624        641
  31.0810        656
  31.0996        661
  31.1181        614
  31.1367        593
  31.1553        657
  31.1739        656
  31.1924        590
  31.2110        640
  31.2296        635
  31.2482        586
  31.2667        600
  31.2853        635
  31.3039        677
  31.3225        650
  31.3411        651
  31.3596        689
  31.3782        619
  31.3968        689
  31.4154        600
  31.4339        645
  31.4525        653
  31.4711        695
  31.4897        623
  31.5082        635
  31.5268        645
  31.5454        677
  31.5640        609
  31.5825        619
  31.6011        607
  31.6197        633
  31.6383        600
  31.6568        683
  31.6754        611
  31.6940        674
  31.7126        625
  31.7312        621
  31.7497        630
  31.7683        624
  31.7869        615
  31.8055        648
  31.8240        621
  31.8426        629
  31.8612        635
  31.8798        677
  31.8983        679
  31.9169        677
  31.9355        717
  31.9541        886
  31.9726       1046
  31.9912       1290
  32.0098       1335
  32.0284       1550
  32.0469       1426
  32.0655       1187
  32.0841       1081
  32.1027       1108
  32.1213       1014
  32.1398        940
  32.1584        801
  32.1770        667
  32.1956        681
  32.2141        645
  32.2327        689
  32.2513        663
  32.2699        729
  32.2884        762
  32.3070        862
  32.3256        891
  32.3442        990
  32.3627       1071
  32.3813        873
  32.3999        802
  32.4185        823
  32.4370        840
  32.4556        857
  32.4742        736
  32.4928        710
  32.5114        725
  32.5299        735
  32.5485        716
  32.5671        834
  32.5857        866
  32.6042       1082
  32.6228       1227
  32.6414       1403
  32.6600       1663
  32.6785       1727
  32.6971       1817
  32.7157       1809
  32.7343       1766
  32.7528       1631
  32.7714       1572
  32.7900       1354
  32.8086       1143
  32.8271       1041
  32.8457        942
  32.8643        862
  32.8829        744
  32.9015        707
  32.9200        706
  32.9386        681
  32.9572        669
  32.9758        669
  32.9943        706
  33.0129        672
  33.0315        644
  33.0501        681
  33.0686        686
  33.0872        683
  33.1058        680
  33.1244        647
  33.1429        756
  33.1615        673
  33.1801        658
  33.1987        653
  33.2172        659
  33.2358        650
  33.2544        675
  33.2730        665
  33.2916        665
  33.3101        639
  33.3287        718
  33.3473        728
  33.3659        744
  33.3844        822
  33.4030       1068
  33.4216       1327
  33.4402       1706
  33.4587       2095
  33.4773       2395
  33.4959       2824
  33.5145       3233
  33.5330       3374
  33.5516       3266
  33.5702       2997
  33.5888       2808
  33.6073       2512
  33.6259       2172
  33.6445       1789
  33.6631       1521
  33.6817       1275
  33.7002       1099
  33.7188        955
  33.7374        778
  33.7560        743
  33.7745        739
  33.7931        655
  33.8117        608
  33.8303        600
  33.8488        620
  33.8674        633
  33.8860        599
  33.9046        514
  33.9231        591
  33.9417        593
  33.9603        578
  33.9789        574
  33.9974        538
  34.0160        544
  34.0346        534
  34.0532        565
  34.0718        544
  34.0903        640
  34.1089        549
  34.1275        545
  34.1461        576
  34.1646        575
  34.1832        557
  34.2018        557
  34.2204        591
  34.2389        569
  34.2575        531
  34.2761        585
  34.2947        608
  34.3132        562
  34.3318        572
  34.3504        516
  34.3690        548
  34.3875        568
  34.4061        552
  34.4247        570
  34.4433        535
  34.4619        568
  34.4804        501
  34.4990        535
  34.5176        517
  34.5362        600
  34.5547        591
  34.5733        558
  34.5919        560
  34.6105        551
  34.6290        523
  34.6476        562
  34.6662        516
  34.6848        557
  34.7033        561
  34.7219        580
  34.7405        545
  34.7591        602
  34.7776        564
  34.7962        556
  34.8148        599
  34.8334        583
  34.8520        596
  34.8705        627
  34.8891        574
  34.9077        633
  34.9263        596
  34.9448        584
  34.9634        572
  34.9820        543
  35.0006        550
  35.0191        556
  35.0377        541
  35.0563        530
  35.0749        502
  35.0934        490
  35.1120        523
  35.1306        528
  35.1492        528
  35.1677        548
  35.1863        543
  35.2049        532
  35.2235        539
  35.2421        501
  35.2606        549
  35.2792        537
  35.2978        550
  35.3164        533
  35.3349        514
  35.3535        502
  35.3721        548
  35.3907        561
  35.4092        538
  35.4278        562
  35.4464        569
  35.4650        554
  35.4835        571
  35.5021        582
  35.5207        581
  35.5393        560
  35.5578        600
  35.5764        593
  35.5950        602
  35.6136        641
  35.6322        586
  35.6507        634
  35.6693        577
  35.6879        591
  35.7065        593
  35.7250        562
  35.7436        620
  35.7622        571
  35.7808        554
  35.7993        520
  35.8179        538
  35.8365        518
  35.8551        503
  35.8736        516
  35.8922        539
  35.9108        490
  35.9294        488
  35.9479        491
  35.9665        497
  35.9851        495
  36.0037        517
  36.0223        504
  36.0408        508
  36.0594        488
  36.0780        527
  36.0966        484
  36.1151        491
  36.1337        467
  36.1523        507
  36.1709        511
  36.1894        515
  36.2080        548
  36.2266        542
  36.2452        511
  36.2637        505
  36.2823        513
  36.3009        527
  36.3195        512
  36.3380        509
  36.3566        520
  36.3752        535
  36.3938        551
  36.4124        533
  36.4309        552
  36.4495        569
  36.4681        543
  36.4867        550
  36.5052        558
  36.5238        552
  36.5424        543
  36.5610        549
  36.5795        535
  36.5981        535
  36.6167        527
  36.6353        496
  36.6538        542
  36.6724        537
  36.6910        503
  36.7096        552
  36.7281        518
  36.7467        502
  36.7653        474
  36.7839        525
  36.8025        531
  36.8210        497
  36.8396        517
  36.8582        526
  36.8768        491
  36.8953        520
  36.9139        520
  36.9325        545
  36.9511        505
  36.9696        494
  36.9882        531
  37.0068        561
  37.0254        558
  37.0439        618
  37.0625        606
  37.0811        569
  37.0997        584
  37.1182        542
  37.1368        572
  37.1554        514
  37.1740        559
  37.1926        542
  37.2111        506
  37.2297        540
  37.2483        540
  37.2669        535
  37.2854        508
  37.3040        493
  37.3226        506
  37.3412        467
  37.3597        464
  37.3783        474
  37.3969        490
  37.4155        483
  37.4340        480
  37.4526        472
  37.4712        505
  37.4898        455
  37.5084        490
  37.5269        505
  37.5455        445
  37.5641        473
  37.5827        476
  37.6012        508
  37.6198        489
  37.6384        512
  37.6570        496
  37.6755        481
  37.6941        458
  37.7127        464
  37.7313        472
  37.7498        483
  37.7684        484
  37.7870        513
  37.8056        497
  37.8241        452
  37.8427        448
  37.8613        462
  37.8799        474
  37.8985        494
  37.9170        507
  37.9356        460
  37.9542        494
  37.9728        464
  37.9913        491
  38.0099        458
  38.0285        463
  38.0471        466
  38.0656        448
  38.0842        499
  38.1028        454
  38.1214        514
  38.1399        510
  38.1585        462
  38.1771        492
  38.1957        508
  38.2142        474
  38.2328        509
  38.2514        476
  38.2700        456
  38.2886        483
  38.3071        474
  38.3257        454
  38.3443        467
  38.3629        473
  38.3814        452
  38.4000        485
  38.4186        490
  38.4372        452
  38.4557        445
  38.4743        472
  38.4929        451
  38.5115        472
  38.5300        490
  38.5486        481
  38.5672        462
  38.5858        509
  38.6043        471
  38.6229        497
  38.6415        509
  38.6601        550
  38.6787        508
  38.6972        545
  38.7158        555
  38.7344        563
  38.7530        621
  38.7715        622
  38.7901        601
  38.8087        612
  38.8273        606
  38.8458        572
  38.8644        539
  38.8830        571
  38.9016        584
  38.9201        565
  38.9387        520
  38.9573        542
  38.9759        531
  38.9944        518
  39.0130        484
  39.0316        525
  39.0502        466
  39.0688        475
  39.0873        461
  39.1059        473
  39.1245        454
  39.1431        481
  39.1616        461
  39.1802        427
  39.1988        499
  39.2174        431
  39.2359        426
  39.2545        449
  39.2731        487
  39.2917        466
  39.3102        471
  39.3288        453
  39.3474        453
  39.3660        450
  39.3845        476
  39.4031        457
  39.4217        442
  39.4403        431
  39.4589        450
  39.4774        451
  39.4960        441
  39.5146        494
  39.5332        456
  39.5517        440
  39.5703        435
  39.5889        465
  39.6075        451
  39.6260        499
  39.6446        431
  39.6632        446
  39.6818        417
  39.7003        458
  39.7189        434
  39.7375        452
  39.7561        463
  39.7746        431
  39.7932        481
  39.8118        466
  39.8304        454
  39.8490        472
  39.8675        436
  39.8861        460
  39.9047        468
  39.9233        459
  39.9418        468
  39.9604        432
  39.9790        451
  39.9976        455
  40.0161        434
  40.0347        450
  40.0533        464
  40.0719        474
  40.0904        471
  40.1090        469
  40.1276        472
  40.1462        440
  40.1647        414
  40.1833        450
  40.2019        479
  40.2205        467
  40.2391        507
  40.2576        484
  40.2762        523
  40.2948        456
  40.3134        487
  40.3319        480
  40.3505        463
  40.3691        428
  40.3877        438
  40.4062        519
  40.4248        473
  40.4434        450
  40.4620        462
  40.4805        459
  40.4991        476
  40.5177        447
  40.5363        470
  40.5548        498
  40.5734        500
  40.5920        464
  40.6106        494
  40.6292        503
  40.6477        517
  40.6663        484
  40.6849        495
  40.7035        525
  40.7220        490
  40.7406        520
  40.7592        492
  40.7778        484
  40.7963        470
  40.8149        504
  40.8335        497
  40.8521        526
  40.8706        547
  40.8892        568
  40.9078        721
  40.9264        777
  40.9449        906
  40.9635       1026
  40.9821       1148
  41.0007       1256
  41.0193       1241
  41.0378       1200
  41.0564       1286
  41.0750       1136
  41.0936       1088
  41.1121       1078
  41.1307        926
  41.1493        917
  41.1679        793
  41.1864        677
  41.2050        600
  41.2236        631
  41.2422        564
  41.2607        572
  41.2793        485
  41.2979        446
  41.3165        499
  41.3350        438
  41.3536        468
  41.3722        455
  41.3908        467
  41.4094        453
  41.4279        438
  41.4465        452
  41.4651        474
  41.4837        431
  41.5022        428
  41.5208        442
  41.5394        404
  41.5580        456
  41.5765        437
  41.5951        439
  41.6137        460
  41.6323        425
  41.6508        415
  41.6694        452
  41.6880        471
  41.7066        455
  41.7251        467
  41.7437        479
  41.7623        453
  41.7809        432
  41.7995        463
  41.8180        444
  41.8366        463
  41.8552        427
  41.8738        418
  41.8923        405
  41.9109        459
  41.9295        448
  41.9481        445
  41.9666        419
  41.9852        489
  42.0038        465
  42.0224        459
  42.0409        447
  42.0595        459
  42.0781        457
  42.0967        461
  42.1152        465
  42.1338        439
  42.1524        465
  42.1710        445
  42.1896        441
  42.2081        459
  42.2267        430
  42.2453        441
  42.2639        459
  42.2824        439
  42.3010        458
  42.3196        477
  42.3382        433
  42.3567        398
  42.3753        428
  42.3939        442
  42.4125        446
  42.4310        459
  42.4496        431
  42.4682        418
  42.4868        441
  42.5053        392
  42.5239        428
  42.5425        486
  42.5611        477
  42.5797        437
  42.5982        423
  42.6168        438
  42.6354        452
  42.6540        460
  42.6725        458
  42.6911        474
  42.7097        479
  42.7283        402
  42.7468        466
  42.7654        409
  42.7840        439
  42.8026        431
  42.8211        467
  42.8397        475
  42.8583        510
  42.8769        474
  42.8954        502
  42.9140        454
  42.9326        463
  42.9512        489
  42.9698        477
  42.9883        507
  43.0069        487
  43.0255        456
  43.0441        504
  43.0626        451
  43.0812        449
  43.0998        439
  43.1184        451
  43.1369        440
  43.1555        444
  43.1741        414
  43.1927        481
  43.2112        454
  43.2298        430
  43.2484        451
  43.2670        463
  43.2855        438
  43.3041        434
  43.3227        425
  43.3413        408
  43.3599        454
  43.3784        480
  43.3970        439
  43.4156        501
  43.4342        446
  43.4527        499
  43.4713        491
  43.4899        550
  43.5085        537
  43.5270        542
  43.5456        527
  43.5642        535
  43.5828        576
  43.6013        576
  43.6199        537
  43.6385        519
  43.6571        480
  43.6756        457
  43.6942        500
  43.7128        500
  43.7314        440
  43.7500        434
  43.7685        473
  43.7871        448
  43.8057        405
  43.8243        461
  43.8428        431
  43.8614        450
  43.8800        405
  43.8986        442
  43.9171        455
  43.9357        469
  43.9543        432
  43.9729        450
  43.9914        464
  44.0100        454
  44.0286        416
  44.0472        430
  44.0657        439
  44.0843        467
  44.1029        446
  44.1215        497
  44.1401        448
  44.1586        427
  44.1772        466
  44.1958        468
  44.2144        497
  44.2329        522
  44.2515        451
  44.2701        459
  44.2887        466
  44.3072        462
  44.3258        467
  44.3444        479
  44.3630        488
  44.3815        479
  44.4001        452
  44.4187        445
  44.4373        442
  44.4558        436
  44.4744        461
  44.4930        484
  44.5116        508
  44.5302        563
  44.5487        558
  44.5673        622
  44.5859        653
  44.6045        555
  44.6230        549
  44.6416        542
  44.6602        510
  44.6788        522
  44.6973        558
  44.7159        508
  44.7345        484
  44.7531        458
  44.7716        435
  44.7902        428
  44.8088        441
  44.8274        443
  44.8459        449
  44.8645        437
  44.8831        445
  44.9017        458
  44.9203        426
  44.9388        398
  44.9574        468
  44.9760        403
  44.9946        419
  45.0131        443
  45.0317        451
  45.0503        390
  45.0689        450
  45.0874        438
  45.1060        473
  45.1246        422
  45.1432        420
  45.1617        424
  45.1803        441
  45.1989        441
  45.2175        430
  45.2360        435
  45.2546        444
  45.2732        432
  45.2918        410
  45.3104        476
  45.3289        420
  45.3475        436
  45.3661        440
  45.3847        456
  45.4032        489
  45.4218        492
  45.4404        502
  45.4590        490
  45.4775        468
  45.4961        462
  45.5147        474
  45.5333        475
  45.5518        474
  45.5704        441
  45.5890        437
  45.6076        452
  45.6261        464
  45.6447        435
  45.6633        450
  45.6819        473
  45.7005        441
  45.7190        444
  45.7376        458
  45.7562        506
  45.7748        464
  45.7933        495
  45.8119        479
  45.8305        445
  45.8491        427
  45.8676        423
  45.8862        407
  45.9048        503
  45.9234        446
  45.9419        476
  45.9605        470
  45.9791        450
  45.9977        446
  46.0162        474
  46.0348        452
  46.0534        467
  46.0720        451
  46.0906        471
  46.1091        385
  46.1277        443
  46.1463        420
  46.1649        451
  46.1834        501
  46.2020        440
  46.2206        446
  46.2392        431
  46.2577        439
  46.2763        440
  46.2949        480
  46.3135        458
  46.3320        538
  46.3506        588
  46.3692        566
  46.3878        580
  46.4063        628
  46.4249        530
  46.4435        527
  46.4621        534
  46.4807        501
  46.4992        547
  46.5178        590
  46.5364        572
  46.5550        534
  46.5735        543
  46.5921        514
  46.6107        495
  46.6293        493
  46.6478        478
  46.6664        508
  46.6850        473
  46.7036        531
  46.7221        563
  46.7407        545
  46.7593        606
  46.7779        657
  46.7965        743
  46.8150        757
  46.8336        870
  46.8522        967
  46.8708       1071
  46.8893       1097
  46.9079       1101
  46.9265       1070
  46.9451       1039
  46.9636       1035
  46.9822       1010
  47.0008        954
  47.0194        949
  47.0379        854
  47.0565        775
  47.0751        708
  47.0937        646
  47.1122        624
  47.1308        576
  47.1494        542
  47.1680        512
  47.1866        456
  47.2051        482
  47.2237        487
  47.2423        447
  47.2609        461
  47.2794        477
  47.2980        462
  47.3166        466
  47.3352        502
  47.3537        494
  47.3723        430
  47.3909        480
  47.4095        498
  47.4280        515
  47.4466        460
  47.4652        482
  47.4838        469
  47.5023        477
  47.5209        474
  47.5395        493
  47.5581        449
  47.5767        470
  47.5952        460
  47.6138        448
  47.6324        488
  47.6510        461
  47.6695        451
  47.6881        430
  47.7067        432
  47.7253        455
  47.7438        402
  47.7624        407
  47.7810        443
  47.7996        434
  47.8181        415
  47.8367        430
  47.8553        435
  47.8739        418
  47.8924        421
  47.9110        434
  47.9296        438
  47.9482        422
  47.9668        446
  47.9853        440
  48.0039        425
  48.0225        416
  48.0411        451
  48.0596        418
  48.0782        430
  48.0968        463
  48.1154        441
  48.1339        431
  48.1525        471
  48.1711        459
  48.1897        458
  48.2082        441
  48.2268        421
  48.2454        434
  48.2640        438
  48.2825        467
  48.3011        425
  48.3197        402
  48.3383        428
  48.3569        431
  48.3754        412
  48.3940        426
  48.4126        452
  48.4312        450
  48.4497        452
  48.4683        421
  48.4869        440
  48.5055        422
  48.5240        435
  48.5426        415
  48.5612        494
  48.5798        497
  48.5983        451
  48.6169        466
  48.6355        481
  48.6541        479
  48.6726        487
  48.6912        493
  48.7098        484
  48.7284        486
  48.7470        498
  48.7655        491
  48.7841        456
  48.8027        518
  48.8213        491
  48.8398        486
  48.8584        499
  48.8770        483
  48.8956        492
  48.9141        485
  48.9327        469
  48.9513        444
  48.9699        462
  48.9884        446
  49.0070        454
  49.0256        464
  49.0442        471
  49.0627        436
  49.0813        431
  49.0999        443
  49.1185        446
  49.1371        430
  49.1556        487
  49.1742        520
  49.1928        542
  49.2114        529
  49.2299        509
  49.2485        585
  49.2671        616
  49.2857        603
  49.3042        612
  49.3228        671
  49.3414        634
  49.3600        604
  49.3785        621
  49.3971        596
  49.4157        628
  49.4343        637
  49.4528        591
  49.4714        574
  49.4900        502
  49.5086        518
  49.5272        492
  49.5457        447
  49.5643        450
  49.5829        452
  49.6015        465
  49.6200        482
  49.6386        500
  49.6572        437
  49.6758        446
  49.6943        410
  49.7129        451
  49.7315        491
  49.7501        424
  49.7686        433
  49.7872        447
  49.8058        466
  49.8244        482
  49.8429        462
  49.8615        415
  49.8801        449
  49.8987        442
  49.9173        443
  49.9358        428
  49.9544        453
  49.9730        427
  49.9916        430
  50.0101        416
  50.0287        420
  50.0473        436
  50.0659        418
  50.0844        428
  50.1030        450
  50.1216        463
  50.1402        445
  50.1587        434
  50.1773        439
  50.1959        461
  50.2145        402
  50.2330        443
  50.2516        420
  50.2702        431
  50.2888        396
  50.3074        429
  50.3259        446
  50.3445        459
  50.3631        420
  50.3817        443
  50.4002        455
  50.4188        420
  50.4374        436
  50.4560        434
  50.4745        457
  50.4931        433
  50.5117        433
  50.5303        410
  50.5488        435
  50.5674        410
  50.5860        449
  50.6046        448
  50.6231        421
  50.6417        478
  50.6603        421
  50.6789        457
  50.6975        439
  50.7160        437
  50.7346        450
  50.7532        395
  50.7718        402
  50.7903        433
  50.8089        451
  50.8275        375
  50.8461        399
  50.8646        452
  50.8832        414
  50.9018        423
  50.9204        383
  50.9389        436
  50.9575        429
  50.9761        398
  50.9947        421
  51.0132        463
  51.0318        427
  51.0504        473
  51.0690        436
  51.0876        434
  51.1061        441
  51.1247        472
  51.1433        422
  51.1619        418
  51.1804        429
  51.1990        435
  51.2176        439
  51.2362        432
  51.2547        469
  51.2733        454
  51.2919        459
  51.3105        433
  51.3290        426
  51.3476        466
  51.3662        460
  51.3848        444
  51.4033        438
  51.4219        425
  51.4405        445
  51.4591        414
  51.4777        448
  51.4962        448
  51.5148        424
  51.5334        434
  51.5520        442
  51.5705        433
  51.5891        433
  51.6077        415
  51.6263        436
  51.6448        382
  51.6634        447
  51.6820        380
  51.7006        421
  51.7191        438
  51.7377        373
  51.7563        469
  51.7749        403
  51.7934        411
  51.8120        386
  51.8306        388
  51.8492        427
  51.8678        410
  51.8863        385
  51.9049        408
  51.9235        379
  51.9421        452
  51.9606        425
  51.9792        446
  51.9978        408
  52.0164        388
  52.0349        396
  52.0535        394
  52.0721        434
  52.0907        446
  52.1092        418
  52.1278        452
  52.1464        432
  52.1650        433
  52.1835        413
  52.2021        454
  52.2207        413
  52.2393        398
  52.2579        416
  52.2764        463
  52.2950        413
  52.3136        384
  52.3322        413
  52.3507        406
  52.3693        418
  52.3879        445
  52.4065        427
  52.4250        391
  52.4436        392
  52.4622        402
  52.4808        430
  52.4993        431
  52.5179        416
  52.5365        394
  52.5551        452
  52.5736        441
  52.5922        433
  52.6108        463
  52.6294        458
  52.6480        462
  52.6665        492
  52.6851        490
  52.7037        504
  52.7223        539
  52.7408        551
  52.7594        542
  52.7780        591
  52.7966        639
  52.8151        650
  52.8337        658
  52.8523        631
  52.8709        606
  52.8894        665
  52.9080        597
  52.9266        586
  52.9452        599
  52.9637        612
  52.9823        562
  53.0009        527
  53.0195        547
  53.0381        496
  53.0566        511
  53.0752        460
  53.0938        452
  53.1124        452
  53.1309        446
  53.1495        453
  53.1681        477
  53.1867        421
  53.2052        431
  53.2238        476
  53.2424        490
  53.2610        441
  53.2795        516
  53.2981        517
  53.3167        474
  53.3353        522
  53.3538        570
  53.3724        611
  53.3910        610
  53.4096        547
  53.4282        573
  53.4467        524
  53.4653        587
  53.4839        534
  53.5025        500
  53.5210        519
  53.5396        535
  53.5582        510
  53.5768        491
  53.5953        504
  53.6139        449
  53.6325        470
  53.6511        512
  53.6696        416
  53.6882        413
  53.7068        465
  53.7254        443
  53.7439        458
  53.7625        403
  53.7811        437
  53.7997        447
  53.8183        406
  53.8368        404
  53.8554        432
  53.8740        425
  53.8926        385
  53.9111        414
  53.9297        454
  53.9483        411
  53.9669        422
  53.9854        403
  54.0040        407
  54.0226        452
  54.0412        431
  54.0597        424
  54.0783        407
  54.0969        377
  54.1155        364
  54.1340        395
  54.1526        414
  54.1712        367
  54.1898        442
  54.2084        411
  54.2269        419
  54.2455        421
  54.2641        414
  54.2827        436
  54.3012        413
  54.3198        426
  54.3384        465
  54.3570        438
  54.3755        421
  54.3941        459
  54.4127        433
  54.4313        460
  54.4498        429
  54.4684        443
  54.4870        458
  54.5056        438
  54.5241        422
  54.5427        408
  54.5613        442
  54.5799        430
  54.5985        407
  54.6170        392
  54.6356        382
  54.6542        380
  54.6728        415
  54.6913        423
  54.7099        453
  54.7285        432
  54.7471        394
  54.7656        407
  54.7842        437
  54.8028        438
  54.8214        410
  54.8399        424
  54.8585        433
  54.8771        416
  54.8957        431
  54.9142        469
  54.9328        472
  54.9514        480
  54.9700        531
  54.9886        493
  55.0071        590
  55.0257        568
  55.0443        608
  55.0629        617
  55.0814        584
  55.1000        572
  55.1186        541
  55.1372        591
  55.1557        584
  55.1743        534
  55.1929        525
  55.2115        517
  55.2300        498
  55.2486        459
  55.2672        541
  55.2858        463
  55.3043        419
  55.3229        441
  55.3415        443
  55.3601        450
  55.3787        407
  55.3972        417
  55.4158        385
  55.4344        388
  55.4530        431
  55.4715        397
  55.4901        440
  55.5087        391
  55.5273        383
  55.5458        376
  55.5644        401
  55.5830        412
  55.6016        437
  55.6201        368
  55.6387        399
  55.6573        406
  55.6759        409
  55.6944        448
  55.7130        420
  55.7316        371
  55.7502        412
  55.7688        401
  55.7873        380
  55.8059        390
  55.8245        412
  55.8431        423
  55.8616        446
  55.8802        413
  55.8988        418
  55.9174        413
  55.9359        388
  55.9545        408
  55.9731        413
  55.9917        420
  56.0102        428
  56.0288        430
  56.0474        415
  56.0660        469
  56.0846        426
  56.1031        457
  56.1217        419
  56.1403        454
  56.1589        409
  56.1774        408
  56.1960        468
  56.2146        435
  56.2332        443
  56.2517        439
  56.2703        406
  56.2889        409
  56.3075        396
  56.3260        432
  56.3446        380
  56.3632        437
  56.3818        390
  56.4003        435
  56.4189        393
  56.4375        402
  56.4561        419
  56.4747        378
  56.4932        428
  56.5118        380
  56.5304        383
  56.5490        412
  56.5675        409
  56.5861        397
  56.6047        434
  56.6233        417
  56.6418        408
  56.6604        420
  56.6790        437
  56.6976        417
  56.7161        406
  56.7347        434
  56.7533        444
  56.7719        421
  56.7904        456
  56.8090        475
  56.8276        472
  56.8462        527
  56.8648        525
  56.8833        482
  56.9019        482
  56.9205        464
  56.9391        425
  56.9576        439
  56.9762        450
  56.9948        484
  57.0134        443
  57.0319        460
  57.0505        420
  57.0691        420
  57.0877        369
  57.1062        379
  57.1248        383
  57.1434        430
  57.1620        399
  57.1805        433
  57.1991        418
  57.2177        409
  57.2363        406
  57.2549        440
  57.2734        423
  57.2920        431
  57.3106        467
  57.3292        434
  57.3477        442
  57.3663        448
  57.3849        469
  57.4035        553
  57.4220        634
  57.4406        668
  57.4592        782
  57.4778        695
  57.4963        630
  57.5149        567
  57.5335        495
  57.5521        503
  57.5706        515
  57.5892        580
  57.6078        590
  57.6264        608
  57.6450        527
  57.6635        513
  57.6821        462
  57.7007        431
  57.7193        425
  57.7378        417
  57.7564        439
  57.7750        435
  57.7936        420
  57.8121        402
  57.8307        459
  57.8493        410
  57.8679        440
  57.8864        448
  57.9050        408
  57.9236        448
  57.9422        454
  57.9607        449
  57.9793        429
  57.9979        411
  58.0165        394
  58.0351        438
  58.0536        435
  58.0722        408
  58.0908        452
  58.1094        438
  58.1279        457
  58.1465        435
  58.1651        444
  58.1837        420
  58.2022        431
  58.2208        437
  58.2394        400
  58.2580        447
  58.2765        410
  58.2951        442
  58.3137        401
  58.3323        456
  58.3508        379
  58.3694        414
  58.3880        457
  58.4066        443
  58.4252        444
  58.4437        401
  58.4623        457
  58.4809        448
  58.4995        448
  58.5180        417
  58.5366        432
  58.5552        447
  58.5738        436
  58.5923        467
  58.6109        477
  58.6295        480
  58.6481        531
  58.6666        564
  58.6852        559
  58.7038        578
  58.7224        629
  58.7409        728
  58.7595        754
  58.7781        919
  58.7967        953
  58.8153       1017
  58.8338       1078
  58.8524       1035
  58.8710       1043
  58.8896        985
  58.9081        990
  58.9267        968
  58.9453       1004
  58.9639        994
  58.9824        943
  59.0010        898
  59.0196        865
  59.0382        768
  59.0567        747
  59.0753        701
  59.0939        662
  59.1125        597
  59.1310        542
  59.1496        546
  59.1682        521
  59.1868        473
  59.2054        452
  59.2239        452
  59.2425        439
  59.2611        411
  59.2797        449
  59.2982        461
  59.3168        421
  59.3354        432
  59.3540        459
  59.3725        396
  59.3911        420
  59.4097        445
  59.4283        413
  59.4468        422
  59.4654        449
  59.4840        407
  59.5026        433
  59.5211        428
  59.5397        420
  59.5583        415
  59.5769        468
  59.5955        452
  59.6140        418
  59.6326        391
  59.6512        401
  59.6698        413
  59.6883        442
  59.7069        426
  59.7255        394
  59.7441        409
  59.7626        391
  59.7812        429
  59.7998        416
  59.8184        385
  59.8369        407
  59.8555        430
  59.8741        441
  59.8927        410
  59.9112        382
  59.9298        435
  59.9484        393
  59.9670        408
