
   5.0000       1939
   5.0186       1964
   5.0372       1876
   5.0557       1863
   5.0743       1874
   5.0929       1816
   5.1115       1803
   5.1300       1828
   5.1486       1826
   5.1672       1762
   5.1858       1764
   5.2043       1829
   5.2229       1746
   5.2415       1763
   5.2601       1747
   5.2786       1757
   5.2972       1755
   5.3158       1680
   5.3344       1755
   5.3529       1755
   5.3715       1640
   5.3901       1712
   5.4087       1696
   5.4273       1681
   5.4458       1563
   5.4644       1684
   5.4830       1627
   5.5016       1666
   5.5201       1684
   5.5387       1594
   5.5573       1621
   5.5759       1593
   5.5944       1491
   5.6130       1566
   5.6316       1562
   5.6502       1538
   5.6687       1594
   5.6873       1566
   5.7059       1502
   5.7245       1568
   5.7430       1455
   5.7616       1522
   5.7802       1636
   5.7988       1510
   5.8174       1504
   5.8359       1515
   5.8545       1471
   5.8731       1440
   5.8917       1552
   5.9102       1497
   5.9288       1473
   5.9474       1471
   5.9660       1424
   5.9845       1448
   6.0031       1421
   6.0217       1392
   6.0403       1405
   6.0588       1401
   6.0774       1358
   6.0960       1401
   6.1146       1397
   6.1331       1402
   6.1517       1417
   6.1703       1356
   6.1889       1335
   6.2075       1358
   6.2260       1289
   6.2446       1406
   6.2632       1350
   6.2818       1302
   6.3003       1335
   6.3189       1314
   6.3375       1322
   6.3561       1322
   6.3746       1365
   6.3932       1305
   6.4118       1324
   6.4304       1362
   6.4489       1241
   6.4675       1275
   6.4861       1276
   6.5047       1280
   6.5232       1302
   6.5418       1325
   6.5604       1215
   6.5790       1255
   6.5976       1275
   6.6161       1208
   6.6347       1259
   6.6533       1270
   6.6719       1223
   6.6904       1250
   6.7090       1207
   6.7276       1204
   6.7462       1166
   6.7647       1177
   6.7833       1220
   6.8019       1199
   6.8205       1217
   6.8390       1151
   6.8576       1237
   6.8762       1191
   6.8948       1227
   6.9133       1154
   6.9319       1176
   6.9505       1166
   6.9691       1193
   6.9877       1148
   7.0062       1140
   7.0248       1181
   7.0434       1078
   7.0620       1117
   7.0805       1131
   7.0991       1119
   7.1177       1103
   7.1363       1153
   7.1548       1120
   7.1734       1083
   7.1920       1105
   7.2106       1118
   7.2291       1116
   7.2477       1140
   7.2663       1073
   7.2849       1068
   7.3034       1104
   7.3220       1123
   7.3406       1099
   7.3592       1151
   7.3778       1120
   7.3963       1120
   7.4149       1129
   7.4335       1129
   7.4521       1097
   7.4706       1164
   7.4892       1130
   7.5078       1090
   7.5264       1077
   7.5449       1089
   7.5635       1095
   7.5821       1127
   7.6007       1066
   7.6192       1039
   7.6378       1156
   7.6564       1092
   7.6750       1035
   7.6935       1069
   7.7121       1101
   7.7307       1074
   7.7493       1094
   7.7679       1092
   7.7864       1129
   7.8050       1057
   7.8236       1094
   7.8422       1143
   7.8607       1069
   7.8793       1092
   7.8979       1083
   7.9165       1070
   7.9350       1064
   7.9536       1057
   7.9722       1062
   7.9908       1094
   8.0093       1086
   8.0279       1079
   8.0465       1089
   8.0651       1093
   8.0836       1101
   8.1022       1058
   8.1208       1089
   8.1394       1067
   8.1580       1015
   8.1765       1047
   8.1951       1107
   8.2137       1067
   8.2323       1075
   8.2508       1085
   8.2694       1116
   8.2880       1054
   8.3066       1046
   8.3251       1030
   8.3437       1067
   8.3623       1127
   8.3809       1072
   8.3994       1100
   8.4180       1037
   8.4366       1141
   8.4552       1056
   8.4737       1062
   8.4923       1072
   8.5109       1072
   8.5295       1073
   8.5481       1038
   8.5666       1072
   8.5852       1089
   8.6038       1070
   8.6224       1166
   8.6409       1119
   8.6595       1086
   8.6781       1116
   8.6967       1087
   8.7152       1039
   8.7338       1026
   8.7524       1093
   8.7710       1079
   8.7895       1068
   8.8081       1040
   8.8267       1044
   8.8453       1076
   8.8638       1035
   8.8824       1053
   8.9010       1114
   8.9196       1105
   8.9382       1082
   8.9567       1001
   8.9753       1081
   8.9939       1053
   9.0125       1042
   9.0310       1069
   9.0496       1076
   9.0682       1048
   9.0868       1151
   9.1053       1060
   9.1239       1126
   9.1425       1073
   9.1611       1068
   9.1796       1054
   9.1982       1086
   9.2168       1042
   9.2354        993
   9.2539       1009
   9.2725       1062
   9.2911       1052
   9.3097       1061
   9.3283       1086
   9.3468       1083
   9.3654       1067
   9.3840       1027
   9.4026       1091
   9.4211       1030
   9.4397       1058
   9.4583       1053
   9.4769       1034
   9.4954       1022
   9.5140       1005
   9.5326       1046
   9.5512       1051
   9.5697       1061
   9.5883       1023
   9.6069       1047
   9.6255       1046
   9.6441       1065
   9.6626       1042
   9.6812       1093
   9.6998       1083
   9.7184       1060
   9.7369       1007
   9.7555       1054
   9.7741       1071
   9.7927       1018
   9.8112       1071
   9.8298       1039
   9.8484       1006
   9.8670       1068
   9.8855       1120
   9.9041       1020
   9.9227       1007
   9.9413       1025
   9.9598       1103
   9.9784       1071
   9.9970       1042
  10.0156       1066
  10.0342       1001
  10.0527       1024
  10.0713       1037
  10.0899       1047
  10.1085       1019
  10.1270       1077
  10.1456        994
  10.1642       1064
  10.1828       1035
  10.2013       1058
  10.2199       1006
  10.2385       1057
  10.2571       1043
  10.2756       1028
  10.2942       1155
  10.3128       1026
  10.3314        974
  10.3499       1097
  10.3685       1006
  10.3871       1031
  10.4057       1011
  10.4243       1011
  10.4428        942
  10.4614       1065
  10.4800        942
  10.4986       1015
  10.5171        989
  10.5357       1010
  10.5543       1016
  10.5729       1032
  10.5914       1015
  10.6100        930
  10.6286       1003
  10.6472       1014
  10.6657        975
  10.6843        961
  10.7029       1035
  10.7215        993
  10.7400       1041
  10.7586       1075
  10.7772       1004
  10.7958       1024
  10.8144       1026
  10.8329        991
  10.8515        992
  10.8701       1035
  10.8887       1001
  10.9072        946
  10.9258        969
  10.9444        977
  10.9630        978
  10.9815        958
  11.0001        970
  11.0187        974
  11.0373       1008
  11.0558        955
  11.0744        955
  11.0930       1044
  11.1116        950
  11.1301       1022
  11.1487        962
  11.1673       1013
  11.1859        979
  11.2045        987
  11.2230        924
  11.2416        905
  11.2602        966
  11.2788        933
  11.2973        961
  11.3159        925
  11.3345        960
  11.3531        909
  11.3716       1006
  11.3902        968
  11.4088        964
  11.4274        942
  11.4459        930
  11.4645        946
  11.4831        968
  11.5017        971
  11.5202        935
  11.5388        966
  11.5574       1001
  11.5760        978
  11.5946        917
  11.6131        952
  11.6317        961
  11.6503        944
  11.6689        958
  11.6874        972
  11.7060        940
  11.7246        961
  11.7432        984
  11.7617       1003
  11.7803       1032
  11.7989       1068
  11.8175       1091
  11.8360       1176
  11.8546       1259
  11.8732       1408
  11.8918       1724
  11.9103       1525
  11.9289       1242
  11.9475       1077
  11.9661        983
  11.9847        972
  12.0032        884
  12.0218        925
  12.0404        888
  12.0590        882
  12.0775        947
  12.0961        908
  12.1147        972
  12.1333        907
  12.1518        895
  12.1704        905
  12.1890        894
  12.2076        865
  12.2261        892
  12.2447        916
  12.2633        910
  12.2819        888
  12.3004        909
  12.3190        859
  12.3376        866
  12.3562        877
  12.3748        878
  12.3933        899
  12.4119        893
  12.4305        867
  12.4491        885
  12.4676        918
  12.4862        923
  12.5048        843
  12.5234        874
  12.5419        832
  12.5605        870
  12.5791        892
  12.5977        886
  12.6162        817
  12.6348        832
  12.6534        883
  12.6720        883
  12.6905        851
  12.7091        840
  12.7277        860
  12.7463        868
  12.7649        874
  12.7834        862
  12.8020        853
  12.8206        854
  12.8392        851
  12.8577        862
  12.8763        822
  12.8949        850
  12.9135        853
  12.9320        809
  12.9506        841
  12.9692        800
  12.9878        830
  13.0063        836
  13.0249        790
  13.0435        842
  13.0621        820
  13.0806        844
  13.0992        844
  13.1178        813
  13.1364        824
  13.1550        835
  13.1735        810
  13.1921        877
  13.2107        854
  13.2293        886
  13.2478        827
  13.2664        842
  13.2850        832
  13.3036        793
  13.3221        770
  13.3407        837
  13.3593        823
  13.3779        850
  13.3964        798
  13.4150        838
  13.4336        818
  13.4522        797
  13.4707        828
  13.4893        736
  13.5079        853
  13.5265        819
  13.5451        830
  13.5636        775
  13.5822        828
  13.6008        795
  13.6194        767
  13.6379        750
  13.6565        786
  13.6751        811
  13.6937        796
  13.7122        828
  13.7308        805
  13.7494        837
  13.7680        840
  13.7865        807
  13.8051        783
  13.8237        758
  13.8423        858
  13.8608        718
  13.8794        804
  13.8980        813
  13.9166        788
  13.9352        788
  13.9537        796
  13.9723        775
  13.9909        818
  14.0095        760
  14.0280        762
  14.0466        747
  14.0652        773
  14.0838        778
  14.1023        739
  14.1209        754
  14.1395        768
  14.1581        804
  14.1766        752
  14.1952        763
  14.2138        824
  14.2324        757
  14.2509        736
  14.2695        757
  14.2881        757
  14.3067        714
  14.3253        767
  14.3438        802
  14.3624        720
  14.3810        749
  14.3996        747
  14.4181        742
  14.4367        774
  14.4553        751
  14.4739        748
  14.4924        727
  14.5110        772
  14.5296        760
  14.5482        746
  14.5667        798
  14.5853        747
  14.6039        758
  14.6225        684
  14.6410        776
  14.6596        781
  14.6782        767
  14.6968        780
  14.7154        745
  14.7339        686
  14.7525        769
  14.7711        735
  14.7897        697
  14.8082        779
  14.8268        715
  14.8454        736
  14.8640        716
  14.8825        709
  14.9011        749
  14.9197        748
  14.9383        735
  14.9568        748
  14.9754        745
  14.9940        722
  15.0126        754
  15.0311        762
  15.0497        809
  15.0683        739
  15.0869        703
  15.1055        736
  15.1240        783
  15.1426        760
  15.1612        746
  15.1798        726
  15.1983        662
  15.2169        776
  15.2355        733
  15.2541        754
  15.2726        709
  15.2912        723
  15.3098        694
  15.3284        714
  15.3469        761
  15.3655        736
  15.3841        747
  15.4027        698
  15.4212        722
  15.4398        709
  15.4584        736
  15.4770        776
  15.4956        699
  15.5141        694
  15.5327        746
  15.5513        668
  15.5699        730
  15.5884        710
  15.6070        745
  15.6256        747
  15.6442        738
  15.6627        705
  15.6813        676
  15.6999        692
  15.7185        706
  15.7370        708
  15.7556        758
  15.7742        725
  15.7928        729
  15.8113        717
  15.8299        746
  15.8485        738
  15.8671        702
  15.8857        736
  15.9042        737
  15.9228        712
  15.9414        718
  15.9600        716
  15.9785        701
  15.9971        757
  16.0157        728
  16.0343        739
  16.0528        765
  16.0714        731
  16.0900        728
  16.1086        754
  16.1271        697
  16.1457        760
  16.1643        702
  16.1829        720
  16.2014        762
  16.2200        727
  16.2386        764
  16.2572        748
  16.2758        713
  16.2943        730
  16.3129        745
  16.3315        724
  16.3501        729
  16.3686        730
  16.3872        711
  16.4058        695
  16.4244        673
  16.4429        733
  16.4615        753
  16.4801        702
  16.4987        712
  16.5172        749
  16.5358        720
  16.5544        727
  16.5730        720
  16.5915        730
  16.6101        688
  16.6287        670
  16.6473        680
  16.6659        679
  16.6844        701
  16.7030        691
  16.7216        753
  16.7402        692
  16.7587        721
  16.7773        691
  16.7959        747
  16.8145        709
  16.8330        692
  16.8516        706
  16.8702        729
  16.8888        710
  16.9073        759
  16.9259        718
  16.9445        691
  16.9631        716
  16.9816        733
  17.0002        686
  17.0188        728
  17.0374        715
  17.0560        696
  17.0745        690
  17.0931        736
  17.1117        671
  17.1303        698
  17.1488        729
  17.1674        754
  17.1860        707
  17.2046        732
  17.2231        746
  17.2417        709
  17.2603        762
  17.2789        722
  17.2974        709
  17.3160        697
  17.3346        722
  17.3532        741
  17.3717        731
  17.3903        684
  17.4089        718
  17.4275        702
  17.4461        696
  17.4646        770
  17.4832        729
  17.5018        691
  17.5204        698
  17.5389        671
  17.5575        751
  17.5761        742
  17.5947        715
  17.6132        649
  17.6318        686
  17.6504        661
  17.6690        700
  17.6875        723
  17.7061        694
  17.7247        725
  17.7433        749
  17.7618        762
  17.7804        726
  17.7990        714
  17.8176        657
  17.8362        716
  17.8547        671
  17.8733        638
  17.8919        704
  17.9105        700
  17.9290        719
  17.9476        694
  17.9662        704
  17.9848        736
  18.0033        754
  18.0219        727
  18.0405        707
  18.0591        767
  18.0776        719
  18.0962        710
  18.1148        716
  18.1334        719
  18.1519        749
  18.1705        759
  18.1891        673
  18.2077        732
  18.2263        710
  18.2448        722
  18.2634        711
  18.2820        764
  18.3006        756
  18.3191        722
  18.3377        717
  18.3563        733
  18.3749        742
  18.3934        733
  18.4120        698
  18.4306        722
  18.4492        779
  18.4677        851
  18.4863        797
  18.5049        768
  18.5235        740
  18.5420        728
  18.5606        720
  18.5792        715
  18.5978        697
  18.6164        771
  18.6349        738
  18.6535        769
  18.6721        737
  18.6907        703
  18.7092        755
  18.7278        695
  18.7464        794
  18.7650        714
  18.7835        700
  18.8021        664
  18.8207        694
  18.8393        750
  18.8578        740
  18.8764        754
  18.8950        736
  18.9136        754
  18.9322        705
  18.9507        753
  18.9693        757
  18.9879        721
  19.0065        698
  19.0250        717
  19.0436        734
  19.0622        734
  19.0808        731
  19.0993        746
  19.1179        703
  19.1365        711
  19.1551        721
  19.1736        731
  19.1922        718
  19.2108        692
  19.2294        718
  19.2479        719
  19.2665        734
  19.2851        706
  19.3037        736
  19.3223        699
  19.3408        748
  19.3594        725
  19.3780        739
  19.3966        714
  19.4151        746
  19.4337        709
  19.4523        695
  19.4709        741
  19.4894        740
  19.5080        725
  19.5266        754
  19.5452        713
  19.5637        711
  19.5823        761
  19.6009        711
  19.6195        754
  19.6380        741
  19.6566        712
  19.6752        770
  19.6938        750
  19.7124        716
  19.7309        736
  19.7495        748
  19.7681        728
  19.7867        763
  19.8052        719
  19.8238        716
  19.8424        739
  19.8610        758
  19.8795        677
  19.8981        753
  19.9167        718
  19.9353        681
  19.9538        766
  19.9724        725
  19.9910        755
  20.0096        754
  20.0281        737
  20.0467        736
  20.0653        726
  20.0839        731
  20.1025        685
  20.1210        749
  20.1396        724
  20.1582        749
  20.1768        745
  20.1953        716
  20.2139        720
  20.2325        726
  20.2511        742
  20.2696        732
  20.2882        766
  20.3068        724
  20.3254        719
  20.3439        738
  20.3625        718
  20.3811        708
  20.3997        733
  20.4182        734
  20.4368        728
  20.4554        744
  20.4740        750
  20.4926        733
  20.5111        736
  20.5297        719
  20.5483        728
  20.5669        735
  20.5854        750
  20.6040        756
  20.6226        720
  20.6412        743
  20.6597        716
  20.6783        731
  20.6969        724
  20.7155        723
  20.7340        712
  20.7526        710
  20.7712        759
  20.7898        720
  20.8083        745
  20.8269        721
  20.8455        763
  20.8641        759
  20.8827        730
  20.9012        704
  20.9198        707
  20.9384        719
  20.9570        737
  20.9755        703
  20.9941        758
  21.0127        693
  21.0313        727
  21.0498        766
  21.0684        715
  21.0870        710
  21.1056        782
  21.1241        737
  21.1427        839
  21.1613        810
  21.1799        733
  21.1984        838
  21.2170        775
  21.2356        745
  21.2542        744
  21.2728        804
  21.2913        817
  21.3099        692
  21.3285        750
  21.3471        714
  21.3656        723
  21.3842        728
  21.4028        774
  21.4214        744
  21.4399        733
  21.4585        686
  21.4771        726
  21.4957        722
  21.5142        763
  21.5328        757
  21.5514        762
  21.5700        678
  21.5885        721
  21.6071        715
  21.6257        702
  21.6443        718
  21.6629        743
  21.6814        723
  21.7000        690
  21.7186        735
  21.7372        683
  21.7557        716
  21.7743        751
  21.7929        743
  21.8115        728
  21.8300        763
  21.8486        758
  21.8672        744
  21.8858        792
  21.9043        720
  21.9229        762
  21.9415        856
  21.9601        876
  21.9786        928
  21.9972        955
  22.0158        858
  22.0344        793
  22.0530        765
  22.0715        777
  22.0901        777
  22.1087        757
  22.1273        725
  22.1458        723
  22.1644        763
  22.1830        819
  22.2016        697
  22.2201        762
  22.2387        726
  22.2573        779
  22.2759        774
  22.2944        765
  22.3130        790
  22.3316        737
  22.3502        734
  22.3687        761
  22.3873        743
  22.4059        786
  22.4245        850
  22.4431        861
  22.4616        867
  22.4802        822
  22.4988        838
  22.5174        798
  22.5359        805
  22.5545        827
  22.5731        823
  22.5917        843
  22.6102        820
  22.6288        860
  22.6474        804
  22.6660        935
  22.6845       1075
  22.7031       1417
  22.7217       1833
  22.7403       2614
  22.7588       3346
  22.7774       3028
  22.7960       2474
  22.8146       2180
  22.8332       1916
  22.8517       1454
  22.8703       1139
  22.8889       1071
  22.9075       1029
  22.9260        937
  22.9446        934
  22.9632        884
  22.9818        839
  23.0003        777
  23.0189        812
  23.0375        744
  23.0561        741
  23.0746        773
  23.0932        769
  23.1118        803
  23.1304        715
  23.1489        749
  23.1675        733
  23.1861        772
  23.2047        736
  23.2233        752
  23.2418        744
  23.2604        726
  23.2790        769
  23.2976        731
  23.3161        759
  23.3347        769
  23.3533        760
  23.3719        776
  23.3904        742
  23.4090        735
  23.4276        731
  23.4462        727
  23.4647        804
  23.4833        823
  23.5019        776
  23.5205        828
  23.5390        794
  23.5576        768
  23.5762        793
  23.5948        794
  23.6134        795
  23.6319        807
  23.6505        825
  23.6691        875
  23.6877        861
  23.7062        850
  23.7248        795
  23.7434        816
  23.7620        780
  23.7805        797
  23.7991        800
  23.8177        847
  23.8363        884
  23.8548        958
  23.8734       1281
  23.8920       1729
  23.9106       1961
  23.9291       1744
  23.9477       1499
  23.9663       1436
  23.9849       1258
  24.0035       1056
  24.0220        815
  24.0406        829
  24.0592        808
  24.0778        749
  24.0963        758
  24.1149        800
  24.1335        734
  24.1521        748
  24.1706        690
  24.1892        789
  24.2078        707
  24.2264        726
  24.2449        671
  24.2635        685
  24.2821        719
  24.3007        684
  24.3192        710
  24.3378        757
  24.3564        738
  24.3750        743
  24.3936        705
  24.4121        715
  24.4307        721
  24.4493        708
  24.4679        656
  24.4864        752
  24.5050        713
  24.5236        776
  24.5422        737
  24.5607        704
  24.5793        698
  24.5979        787
  24.6165        697
  24.6350        760
  24.6536        700
  24.6722        701
  24.6908        753
  24.7093        725
  24.7279        677
  24.7465        752
  24.7651        702
  24.7837        701
  24.8022        716
  24.8208        699
  24.8394        723
  24.8580        696
  24.8765        782
  24.8951        699
  24.9137        679
  24.9323        702
  24.9508        672
  24.9694        735
  24.9880        722
  25.0066        711
  25.0251        679
  25.0437        715
  25.0623        678
  25.0809        728
  25.0994        675
  25.1180        685
  25.1366        715
  25.1552        701
  25.1738        718
  25.1923        632
  25.2109        676
  25.2295        716
  25.2481        714
  25.2666        746
  25.2852        769
  25.3038        707
  25.3224        758
  25.3409        805
  25.3595        812
  25.3781        816
  25.3967        845
  25.4152        737
  25.4338        799
  25.4524        697
  25.4710        720
  25.4895        740
  25.5081        699
  25.5267        684
  25.5453        702
  25.5639        747
  25.5824        733
  25.6010        822
  25.6196        847
  25.6382        885
  25.6567        852
  25.6753        838
  25.6939        817
  25.7125        792
  25.7310        862
  25.7496        885
  25.7682        881
  25.7868        769
  25.8053        790
  25.8239        755
  25.8425        744
  25.8611        754
  25.8796        684
  25.8982        710
  25.9168        726
  25.9354        691
  25.9540        730
  25.9725        715
  25.9911        695
  26.0097        678
  26.0283        657
  26.0468        670
  26.0654        710
  26.0840        685
  26.1026        658
  26.1211        709
  26.1397        677
  26.1583        725
  26.1769        698
  26.1954        678
  26.2140        674
  26.2326        701
  26.2512        667
  26.2697        675
  26.2883        677
  26.3069        714
  26.3255        650
  26.3441        667
  26.3626        702
  26.3812        665
  26.3998        652
  26.4184        688
  26.4369        671
  26.4555        704
  26.4741        753
  26.4927        746
  26.5112        695
  26.5298        691
  26.5484        689
  26.5670        706
  26.5855        712
  26.6041        685
  26.6227        662
  26.6413        644
  26.6598        608
  26.6784        658
  26.6970        658
  26.7156        662
  26.7342        621
  26.7527        646
  26.7713        629
  26.7899        635
  26.8085        657
  26.8270        667
  26.8456        668
  26.8642        643
  26.8828        682
  26.9013        643
  26.9199        667
  26.9385        661
  26.9571        667
  26.9756        695
  26.9942        630
  27.0128        627
  27.0314        644
  27.0499        646
  27.0685        677
  27.0871        653
  27.1057        656
  27.1243        677
  27.1428        679
  27.1614        653
  27.1800        652
  27.1986        651
  27.2171        648
  27.2357        657
  27.2543        601
  27.2729        673
  27.2914        643
  27.3100        628
  27.3286        713
  27.3472        639
  27.3657        616
  27.3843        654
  27.4029        581
  27.4215        625
  27.4400        629
  27.4586        653
  27.4772        634
  27.4958        631
  27.5144        631
  27.5329        631
  27.5515        621
  27.5701        630
  27.5887        656
  27.6072        633
  27.6258        650
  27.6444        638
  27.6630        628
  27.6815        654
  27.7001        628
  27.7187        593
  27.7373        584
  27.7558        671
  27.7744        612
  27.7930        650
  27.8116        676
  27.8301        673
  27.8487        650
  27.8673        683
  27.8859        681
  27.9045        680
  27.9230        783
  27.9416        827
  27.9602       1029
  27.9788       1056
  27.9973        980
  28.0159        958
  28.0345        926
  28.0531        901
  28.0716        868
  28.0902        724
  28.1088        727
  28.1274        708
  28.1459        763
  28.1645        691
  28.1831        637
  28.2017        577
  28.2203        597
  28.2388        587
  28.2574        611
  28.2760        595
  28.2946        650
  28.3131        609
  28.3317        631
  28.3503        598
  28.3689        656
  28.3874        680
  28.4060        701
  28.4246        768
  28.4432        693
  28.4617        651
  28.4803        672
  28.4989        599
  28.5175        669
  28.5360        651
  28.5546        620
  28.5732        625
  28.5918        599
  28.6104        606
  28.6289        594
  28.6475        565
  28.6661        611
  28.6847        625
  28.7032        611
  28.7218        628
  28.7404        600
  28.7590        609
  28.7775        591
  28.7961        608
  28.8147        613
  28.8333        586
  28.8518        590
  28.8704        555
  28.8890        576
  28.9076        620
  28.9261        625
  28.9447        595
  28.9633        649
  28.9819        510
  29.0005        604
  29.0190        639
  29.0376        590
  29.0562        600
  29.0748        604
  29.0933        593
  29.1119        655
  29.1305        705
  29.1491        732
  29.1676        728
  29.1862        695
  29.2048        710
  29.2234        676
  29.2419        647
  29.2605        630
  29.2791        580
  29.2977        612
  29.3162        587
  29.3348        598
  29.3534        597
  29.3720        591
  29.3906        619
  29.4091        560
  29.4277        610
  29.4463        614
  29.4649        581
  29.4834        564
  29.5020        573
  29.5206        656
  29.5392        656
  29.5577        622
  29.5763        582
  29.5949        601
  29.6135        644
  29.6320        587
  29.6506        598
  29.6692        622
  29.6878        660
  29.7063        681
  29.7249        691
  29.7435        719
  29.7621        782
  29.7807        933
  29.7992       1154
  29.8178       1177
  29.8364        986
  29.8550        833
  29.8735        854
  29.8921        846
  29.9107        792
  29.9293        647
  29.9478        642
  29.9664        666
  29.9850        618
  30.0036        559
  30.0221        612
  30.0407        602
  30.0593        565
  30.0779        569
  30.0964        585
  30.1150        587
  30.1336        592
  30.1522        597
  30.1708        547
  30.1893        584
  30.2079        575
  30.2265        561
  30.2451        561
  30.2636        523
  30.2822        535
  30.3008        554
  30.3194        600
  30.3379        546
  30.3565        529
  30.3751        596
  30.3937        592
  30.4122        547
  30.4308        565
  30.4494        560
  30.4680        577
  30.4865        614
  30.5051        624
  30.5237        618
  30.5423        658
  30.5609        540
  30.5794        556
  30.5980        603
  30.6166        565
  30.6352        605
  30.6537        571
  30.6723        619
  30.6909        631
  30.7095        658
  30.7280        726
  30.7466        682
  30.7652        668
  30.7838        641
  30.8023        607
  30.8209        615
  30.8395        580
  30.8581        577
  30.8766        590
  30.8952        555
  30.9138        564
  30.9324        584
  30.9510        591
  30.9695        600
  30.9881        577
  31.0067        574
  31.0253        553
  31.0438        561
  31.0624        597
  31.0810        587
  31.0996        570
  31.1181        570
  31.1367        535
  31.1553        581
  31.1739        497
  31.1924        571
  31.2110        531
  31.2296        562
  31.2482        567
  31.2667        550
  31.2853        539
  31.3039        546
  31.3225        555
  31.3411        602
  31.3596        607
  31.3782        652
  31.3968        688
  31.4154        646
  31.4339        626
  31.4525        609
  31.4711        642
  31.4897        606
  31.5082        612
  31.5268        574
  31.5454        595
  31.5640        606
  31.5825        766
  31.6011        796
  31.6197        771
  31.6383        685
  31.6568        671
  31.6754        693
  31.6940        707
  31.7126        664
  31.7312        605
  31.7497        627
  31.7683        546
  31.7869        590
  31.8055        581
  31.8240        556
  31.8426        547
  31.8612        512
  31.8798        576
  31.8983        572
  31.9169        535
  31.9355        554
  31.9541        535
  31.9726        559
  31.9912        604
  32.0098        618
  32.0284        711
  32.0469        775
  32.0655        799
  32.0841        809
  32.1027        694
  32.1213        726
  32.1398        742
  32.1584        744
  32.1770        718
  32.1956        665
  32.2141        681
  32.2327        643
  32.2513        684
  32.2699        711
  32.2884        697
  32.3070        760
  32.3256        783
  32.3442       1036
  32.3627       1509
  32.3813       2283
  32.3999       3155
  32.4185       3423
  32.4370       2545
  32.4556       1961
  32.4742       2094
  32.4928       2361
  32.5114       1938
  32.5299       1357
  32.5485        992
  32.5671        872
  32.5857        802
  32.6042        789
  32.6228        712
  32.6414        657
  32.6600        603
  32.6785        591
  32.6971        609
  32.7157        568
  32.7343        566
  32.7528        581
  32.7714        593
  32.7900        627
  32.8086        571
  32.8271        648
  32.8457        658
  32.8643        629
  32.8829        620
  32.9015        630
  32.9200        659
  32.9386        633
  32.9572        636
  32.9758        642
  32.9943        608
  33.0129        694
  33.0315        706
  33.0501        712
  33.0686        725
  33.0872        826
  33.1058        813
  33.1244        909
  33.1429        983
  33.1615       1191
  33.1801       1621
  33.1987       2486
  33.2172       4126
  33.2358       6112
  33.2544       6776
  33.2730       5058
  33.2916       3567
  33.3101       3467
  33.3287       3857
  33.3473       3442
  33.3659       2213
  33.3844       1405
  33.4030       1057
  33.4216        859
  33.4402        819
  33.4587        719
  33.4773        653
  33.4959        660
  33.5145        598
  33.5330        624
  33.5516        612
  33.5702        555
  33.5888        579
  33.6073        545
  33.6259        608
  33.6445        553
  33.6631        553
  33.6817        537
  33.7002        541
  33.7188        541
  33.7374        555
  33.7560        514
  33.7745        526
  33.7931        507
  33.8117        560
  33.8303        534
  33.8488        530
  33.8674        544
  33.8860        511
  33.9046        514
  33.9231        506
  33.9417        508
  33.9603        560
  33.9789        533
  33.9974        575
  34.0160        493
  34.0346        529
  34.0532        513
  34.0718        500
  34.0903        454
  34.1089        446
  34.1275        492
  34.1461        456
  34.1646        535
  34.1832        504
  34.2018        439
  34.2204        442
  34.2389        508
  34.2575        463
  34.2761        495
  34.2947        463
  34.3132        473
  34.3318        485
  34.3504        488
  34.3690        457
  34.3875        464
  34.4061        445
  34.4247        491
  34.4433        466
  34.4619        446
  34.4804        477
  34.4990        487
  34.5176        471
  34.5362        453
  34.5547        498
  34.5733        486
  34.5919        477
  34.6105        560
  34.6290        535
  34.6476        504
  34.6662        486
  34.6848        471
  34.7033        486
  34.7219        489
  34.7405        480
  34.7591        483
  34.7776        484
  34.7962        474
  34.8148        454
  34.8334        456
  34.8520        446
  34.8705        460
  34.8891        434
  34.9077        462
  34.9263        488
  34.9448        484
  34.9634        452
  34.9820        520
  35.0006        495
  35.0191        487
  35.0377        446
  35.0563        436
  35.0749        451
  35.0934        470
  35.1120        458
  35.1306        500
  35.1492        442
  35.1677        472
  35.1863        420
  35.2049        461
  35.2235        474
  35.2421        493
  35.2606        468
  35.2792        469
  35.2978        459
  35.3164        452
  35.3349        508
  35.3535        502
  35.3721        497
  35.3907        552
  35.4092        602
  35.4278        654
  35.4464        713
  35.4650        689
  35.4835        624
  35.5021        598
  35.5207        706
  35.5393        707
  35.5578        652
  35.5764        555
  35.5950        509
  35.6136        541
  35.6322        557
  35.6507        540
  35.6693        500
  35.6879        446
  35.7065        461
  35.7250        470
  35.7436        439
  35.7622        452
  35.7808        481
  35.7993        410
  35.8179        432
  35.8365        479
  35.8551        439
  35.8736        439
  35.8922        439
  35.9108        434
  35.9294        453
  35.9479        444
  35.9665        437
  35.9851        444
  36.0037        455
  36.0223        449
  36.0408        441
  36.0594        439
  36.0780        470
  36.0966        478
  36.1151        487
  36.1337        477
  36.1523        484
  36.1709        550
  36.1894        618
  36.2080        724
  36.2266        790
  36.2452        723
  36.2637        730
  36.2823        722
  36.3009        688
  36.3195        717
  36.3380        676
  36.3566        767
  36.3752        773
  36.3938        845
  36.4124        921
  36.4309        917
  36.4495        800
  36.4681        696
  36.4867        666
  36.5052        723
  36.5238        677
  36.5424        626
  36.5610        578
  36.5795        526
  36.5981        518
  36.6167        487
  36.6353        452
  36.6538        484
  36.6724        472
  36.6910        421
  36.7096        398
  36.7281        434
  36.7467        416
  36.7653        444
  36.7839        428
  36.8025        442
  36.8210        412
  36.8396        428
  36.8582        424
  36.8768        414
  36.8953        464
  36.9139        410
  36.9325        434
  36.9511        419
  36.9696        429
  36.9882        407
  37.0068        431
  37.0254        413
  37.0439        438
  37.0625        408
  37.0811        402
  37.0997        443
  37.1182        402
  37.1368        434
  37.1554        435
  37.1740        406
  37.1926        405
  37.2111        419
  37.2297        434
  37.2483        398
  37.2669        394
  37.2854        409
  37.3040        413
  37.3226        435
  37.3412        375
  37.3597        448
  37.3783        457
  37.3969        417
  37.4155        427
  37.4340        388
  37.4526        425
  37.4712        423
  37.4898        394
  37.5084        438
  37.5269        463
  37.5455        421
  37.5641        405
  37.5827        394
  37.6012        441
  37.6198        427
  37.6384        419
  37.6570        435
  37.6755        448
  37.6941        428
  37.7127        390
  37.7313        421
  37.7498        410
  37.7684        453
  37.7870        403
  37.8056        417
  37.8241        430
  37.8427        429
  37.8613        446
  37.8799        423
  37.8985        408
  37.9170        405
  37.9356        401
  37.9542        445
  37.9728        410
  37.9913        426
  38.0099        426
  38.0285        397
  38.0471        410
  38.0656        396
  38.0842        444
  38.1028        423
  38.1214        421
  38.1399        381
  38.1585        390
  38.1771        420
  38.1957        430
  38.2142        437
  38.2328        373
  38.2514        427
  38.2700        451
  38.2886        493
  38.3071        394
  38.3257        420
  38.3443        428
  38.3629        456
  38.3814        392
  38.4000        442
  38.4186        425
  38.4372        460
  38.4557        405
  38.4743        489
  38.4929        464
  38.5115        452
  38.5300        390
  38.5486        452
  38.5672        445
  38.5858        492
  38.6043        383
  38.6229        445
  38.6415        466
  38.6601        460
  38.6787        497
  38.6972        496
  38.7158        535
  38.7344        559
  38.7530        516
  38.7715        554
  38.7901        523
  38.8087        522
  38.8273        496
  38.8458        475
  38.8644        478
  38.8830        441
  38.9016        443
  38.9201        432
  38.9387        442
  38.9573        496
  38.9759        442
  38.9944        424
  39.0130        463
  39.0316        421
  39.0502        408
  39.0688        472
  39.0873        390
  39.1059        438
  39.1245        411
  39.1431        417
  39.1616        425
  39.1802        419
  39.1988        393
  39.2174        400
  39.2359        412
  39.2545        418
  39.2731        371
  39.2917        356
  39.3102        383
  39.3288        419
  39.3474        406
  39.3660        425
  39.3845        395
  39.4031        402
  39.4217        402
  39.4403        433
  39.4589        359
  39.4774        393
  39.4960        388
  39.5146        392
  39.5332        378
  39.5517        400
  39.5703        392
  39.5889        406
  39.6075        405
  39.6260        396
  39.6446        380
  39.6632        403
  39.6818        416
  39.7003        441
  39.7189        371
  39.7375        404
  39.7561        430
  39.7746        460
  39.7932        435
  39.8118        445
  39.8304        440
  39.8490        430
  39.8675        412
  39.8861        438
  39.9047        428
  39.9233        456
  39.9418        434
  39.9604        425
  39.9790        400
  39.9976        384
  40.0161        402
  40.0347        401
  40.0533        409
  40.0719        370
  40.0904        393
  40.1090        381
  40.1276        415
  40.1462        380
  40.1647        387
  40.1833        409
  40.2019        400
  40.2205        405
  40.2391        400
  40.2576        433
  40.2762        428
  40.2948        426
  40.3134        425
  40.3319        415
  40.3505        416
  40.3691        433
  40.3877        444
  40.4062        450
  40.4248        438
  40.4434        458
  40.4620        469
  40.4805        471
  40.4991        500
  40.5177        490
  40.5363        486
  40.5548        542
  40.5734        553
  40.5920        635
  40.6106        792
  40.6292       1058
  40.6477       1648
  40.6663       2383
  40.6849       2388
  40.7035       1830
  40.7220       1144
  40.7406       1065
  40.7592       1261
  40.7778       1467
  40.7963       1364
  40.8149        976
  40.8335        732
  40.8521        567
  40.8706        526
  40.8892        507
  40.9078        461
  40.9264        444
  40.9449        480
  40.9635        415
  40.9821        442
  41.0007        441
  41.0193        391
  41.0378        452
  41.0564        395
  41.0750        395
  41.0936        392
  41.1121        363
  41.1307        415
  41.1493        372
  41.1679        423
  41.1864        404
  41.2050        382
  41.2236        357
  41.2422        385
  41.2607        394
  41.2793        425
  41.2979        413
  41.3165        410
  41.3350        348
  41.3536        391
  41.3722        419
  41.3908        357
  41.4094        375
  41.4279        396
  41.4465        373
  41.4651        388
  41.4837        408
  41.5022        398
  41.5208        383
  41.5394        368
  41.5580        407
  41.5765        407
  41.5951        376
  41.6137        370
  41.6323        412
  41.6508        390
  41.6694        397
  41.6880        402
  41.7066        361
  41.7251        400
  41.7437        382
  41.7623        382
  41.7809        382
  41.7995        386
  41.8180        377
  41.8366        407
  41.8552        378
  41.8738        404
  41.8923        365
  41.9109        370
  41.9295        375
  41.9481        406
  41.9666        364
  41.9852        383
  42.0038        422
  42.0224        384
  42.0409        435
  42.0595        396
  42.0781        377
  42.0967        426
  42.1152        407
  42.1338        411
  42.1524        443
  42.1710        410
  42.1896        407
  42.2081        436
  42.2267        484
  42.2453        511
  42.2639        565
  42.2824        645
  42.3010        626
  42.3196        618
  42.3382        518
  42.3567        493
  42.3753        506
  42.3939        566
  42.4125        480
  42.4310        475
  42.4496        447
  42.4682        424
  42.4868        435
  42.5053        444
  42.5239        408
  42.5425        384
  42.5611        395
  42.5797        420
  42.5982        367
  42.6168        424
  42.6354        362
  42.6540        374
  42.6725        408
  42.6911        404
  42.7097        386
  42.7283        370
  42.7468        351
  42.7654        376
  42.7840        367
  42.8026        365
  42.8211        384
  42.8397        415
  42.8583        363
  42.8769        409
  42.8954        368
  42.9140        413
  42.9326        397
  42.9512        397
  42.9698        330
  42.9883        344
  43.0069        364
  43.0255        372
  43.0441        377
  43.0626        390
  43.0812        392
  43.0998        375
  43.1184        461
  43.1369        454
  43.1555        504
  43.1741        588
  43.1927        718
  43.2112        685
  43.2298        571
  43.2484        479
  43.2670        488
  43.2855        475
  43.3041        545
  43.3227        573
  43.3413        502
  43.3599        404
  43.3784        429
  43.3970        416
  43.4156        373
  43.4342        353
  43.4527        415
  43.4713        370
  43.4899        385
  43.5085        368
  43.5270        340
  43.5456        387
  43.5642        339
  43.5828        365
  43.6013        362
  43.6199        357
  43.6385        332
  43.6571        406
  43.6756        384
  43.6942        313
  43.7128        382
  43.7314        370
  43.7500        372
  43.7685        369
  43.7871        391
  43.8057        394
  43.8243        363
  43.8428        396
  43.8614        383
  43.8800        398
  43.8986        422
  43.9171        412
  43.9357        357
  43.9543        392
  43.9729        420
  43.9914        419
  44.0100        452
  44.0286        492
  44.0472        442
  44.0657        392
  44.0843        399
  44.1029        413
  44.1215        382
  44.1401        387
  44.1586        432
  44.1772        427
  44.1958        421
  44.2144        391
  44.2329        385
  44.2515        368
  44.2701        381
  44.2887        387
  44.3072        361
  44.3258        375
  44.3444        371
  44.3630        335
  44.3815        374
  44.4001        380
  44.4187        410
  44.4373        398
  44.4558        393
  44.4744        412
  44.4930        385
  44.5116        367
  44.5302        366
  44.5487        363
  44.5673        379
  44.5859        359
  44.6045        404
  44.6230        400
  44.6416        432
  44.6602        442
  44.6788        381
  44.6973        369
  44.7159        382
  44.7345        434
  44.7531        394
  44.7716        431
  44.7902        401
  44.8088        495
  44.8274        435
  44.8459        420
  44.8645        426
  44.8831        408
  44.9017        366
  44.9203        386
  44.9388        432
  44.9574        427
  44.9760        414
  44.9946        413
  45.0131        415
  45.0317        403
  45.0503        433
  45.0689        422
  45.0874        405
  45.1060        451
  45.1246        389
  45.1432        395
  45.1617        403
  45.1803        412
  45.1989        382
  45.2175        417
  45.2360        372
  45.2546        401
  45.2732        391
  45.2918        406
  45.3104        395
  45.3289        354
  45.3475        366
  45.3661        327
  45.3847        365
  45.4032        357
  45.4218        321
  45.4404        417
  45.4590        378
  45.4775        379
  45.4961        346
  45.5147        378
  45.5333        342
  45.5518        358
  45.5704        367
  45.5890        367
  45.6076        381
  45.6261        343
  45.6447        425
  45.6633        409
  45.6819        408
  45.7005        385
  45.7190        390
  45.7376        420
  45.7562        394
  45.7748        388
  45.7933        452
  45.8119        451
  45.8305        455
  45.8491        439
  45.8676        413
  45.8862        430
  45.9048        476
  45.9234        468
  45.9419        500
  45.9605        519
  45.9791        495
  45.9977        607
  46.0162        504
  46.0348        481
  46.0534        476
  46.0720        476
  46.0906        418
  46.1091        456
  46.1277        478
  46.1463        460
  46.1649        425
  46.1834        432
  46.2020        401
  46.2206        425
  46.2392        430
  46.2577        385
  46.2763        412
  46.2949        476
  46.3135        448
  46.3320        457
  46.3506        496
  46.3692        449
  46.3878        514
  46.4063        560
  46.4249        650
  46.4435        881
  46.4621       1331
  46.4807       1871
  46.4992       2350
  46.5178       1924
  46.5364       1218
  46.5550        951
  46.5735        916
  46.5921       1089
  46.6107       1273
  46.6293       1288
  46.6478       1042
  46.6664        768
  46.6850        583
  46.7036        521
  46.7221        515
  46.7407        469
  46.7593        444
  46.7779        426
  46.7965        422
  46.8150        408
  46.8336        413
  46.8522        426
  46.8708        396
  46.8893        369
  46.9079        420
  46.9265        392
  46.9451        402
  46.9636        429
  46.9822        381
  47.0008        374
  47.0194        378
  47.0379        382
  47.0565        360
  47.0751        389
  47.0937        367
  47.1122        378
  47.1308        372
  47.1494        369
  47.1680        399
  47.1866        355
  47.2051        377
  47.2237        381
  47.2423        356
  47.2609        349
  47.2794        368
  47.2980        358
  47.3166        373
  47.3352        344
  47.3537        386
  47.3723        434
  47.3909        390
  47.4095        388
  47.4280        350
  47.4466        418
  47.4652        374
  47.4838        376
  47.5023        370
  47.5209        395
  47.5395        355
  47.5581        387
  47.5767        388
  47.5952        365
  47.6138        384
  47.6324        339
  47.6510        380
  47.6695        367
  47.6881        364
  47.7067        377
  47.7253        364
  47.7438        380
  47.7624        388
  47.7810        365
  47.7996        417
  47.8181        410
  47.8367        384
  47.8553        382
  47.8739        379
  47.8924        366
  47.9110        394
  47.9296        368
  47.9482        398
  47.9668        359
  47.9853        392
  48.0039        372
  48.0225        392
  48.0411        383
  48.0596        408
  48.0782        383
  48.0968        403
  48.1154        410
  48.1339        501
  48.1525        536
  48.1711        549
  48.1897        565
  48.2082        440
  48.2268        398
  48.2454        421
  48.2640        420
  48.2825        441
  48.3011        484
  48.3197        439
  48.3383        428
  48.3569        398
  48.3754        372
  48.3940        407
  48.4126        383
  48.4312        407
  48.4497        426
  48.4683        397
  48.4869        411
  48.5055        377
  48.5240        383
  48.5426        385
  48.5612        368
  48.5798        366
  48.5983        349
  48.6169        381
  48.6355        361
  48.6541        397
  48.6726        388
  48.6912        409
  48.7098        368
  48.7284        415
  48.7470        403
  48.7655        425
  48.7841        420
  48.8027        428
  48.8213        390
  48.8398        418
  48.8584        447
  48.8770        500
  48.8956        506
  48.9141        658
  48.9327        913
  48.9513       1173
  48.9699       1172
  48.9884        901
  49.0070        676
  49.0256        599
  49.0442        591
  49.0627        635
  49.0813        787
  49.0999        786
  49.1185        675
  49.1371        565
  49.1556        461
  49.1742        511
  49.1928        415
  49.2114        429
  49.2299        379
  49.2485        367
  49.2671        422
  49.2857        384
  49.3042        346
  49.3228        383
  49.3414        418
  49.3600        419
  49.3785        378
  49.3971        413
  49.4157        416
  49.4343        428
  49.4528        442
  49.4714        400
  49.4900        442
  49.5086        397
  49.5272        378
  49.5457        395
  49.5643        393
  49.5829        396
  49.6015        378
  49.6200        393
  49.6386        389
  49.6572        347
  49.6758        333
  49.6943        349
  49.7129        372
  49.7315        360
  49.7501        351
  49.7686        387
  49.7872        345
  49.8058        364
  49.8244        356
  49.8429        386
  49.8615        344
  49.8801        370
  49.8987        405
  49.9173        371
  49.9358        351
  49.9544        377
  49.9730        380
  49.9916        403
  50.0101        371
  50.0287        371
  50.0473        370
  50.0659        378
  50.0844        386
  50.1030        342
  50.1216        345
  50.1402        380
  50.1587        352
  50.1773        361
  50.1959        388
  50.2145        409
  50.2330        411
  50.2516        379
  50.2702        368
  50.2888        363
  50.3074        403
  50.3259        346
  50.3445        341
  50.3631        375
  50.3817        345
  50.4002        364
  50.4188        366
  50.4374        355
  50.4560        309
  50.4745        373
  50.4931        355
  50.5117        379
  50.5303        355
  50.5488        333
  50.5674        340
  50.5860        348
  50.6046        351
  50.6231        347
  50.6417        349
  50.6603        399
  50.6789        362
  50.6975        339
  50.7160        353
  50.7346        379
  50.7532        365
  50.7718        321
  50.7903        376
  50.8089        353
  50.8275        343
  50.8461        337
  50.8646        367
  50.8832        341
  50.9018        367
  50.9204        348
  50.9389        345
  50.9575        352
  50.9761        380
  50.9947        373
  51.0132        345
  51.0318        387
  51.0504        381
  51.0690        344
  51.0876        351
  51.1061        345
  51.1247        356
  51.1433        367
  51.1619        357
  51.1804        354
  51.1990        371
  51.2176        367
  51.2362        332
  51.2547        370
  51.2733        364
  51.2919        357
  51.3105        341
  51.3290        343
  51.3476        349
  51.3662        332
  51.3848        334
  51.4033        339
  51.4219        338
  51.4405        354
  51.4591        345
  51.4777        334
  51.4962        382
  51.5148        378
  51.5334        380
  51.5520        366
  51.5705        409
  51.5891        365
  51.6077        440
  51.6263        440
  51.6448        429
  51.6634        439
  51.6820        414
  51.7006        427
  51.7191        390
  51.7377        425
  51.7563        416
  51.7749        396
  51.7934        369
  51.8120        370
  51.8306        389
  51.8492        343
  51.8678        377
  51.8863        409
  51.9049        408
  51.9235        370
  51.9421        370
  51.9606        341
  51.9792        358
  51.9978        340
  52.0164        361
  52.0349        355
  52.0535        364
  52.0721        322
  52.0907        405
  52.1092        362
  52.1278        368
  52.1464        354
  52.1650        345
  52.1835        350
  52.2021        376
  52.2207        354
  52.2393        371
  52.2579        349
  52.2764        428
  52.2950        436
  52.3136        530
  52.3322        547
  52.3507        760
  52.3693        850
  52.3879        906
  52.4065        720
  52.4250        565
  52.4436        498
  52.4622        544
  52.4808        553
  52.4993        633
  52.5179        652
  52.5365        599
  52.5551        544
  52.5736        472
  52.5922        384
  52.6108        363
  52.6294        393
  52.6480        422
  52.6665        379
  52.6851        375
  52.7037        408
  52.7223        349
  52.7408        389
  52.7594        354
  52.7780        363
  52.7966        360
  52.8151        373
  52.8337        377
  52.8523        398
  52.8709        434
  52.8894        451
  52.9080        532
  52.9266        751
  52.9452        824
  52.9637        839
  52.9823        639
  53.0009        515
  53.0195        510
  53.0381        471
  53.0566        521
  53.0752        582
  53.0938        651
  53.1124        595
  53.1309        484
  53.1495        436
  53.1681        425
  53.1867        413
  53.2052        396
  53.2238        387
  53.2424        354
  53.2610        344
  53.2795        344
  53.2981        357
  53.3167        394
  53.3353        406
  53.3538        364
  53.3724        367
  53.3910        359
  53.4096        347
  53.4282        377
  53.4467        350
  53.4653        366
  53.4839        334
  53.5025        372
  53.5210        321
  53.5396        352
  53.5582        401
  53.5768        349
  53.5953        353
  53.6139        370
  53.6325        346
  53.6511        344
  53.6696        352
  53.6882        389
  53.7068        398
  53.7254        327
  53.7439        335
  53.7625        342
  53.7811        347
  53.7997        369
  53.8183        359
  53.8368        372
  53.8554        384
  53.8740        418
  53.8926        428
  53.9111        438
  53.9297        454
  53.9483        377
  53.9669        377
  53.9854        388
  54.0040        359
  54.0226        361
  54.0412        414
  54.0597        434
  54.0783        398
  54.0969        368
  54.1155        358
  54.1340        376
  54.1526        362
  54.1712        366
  54.1898        393
  54.2084        366
  54.2269        343
  54.2455        329
  54.2641        351
  54.2827        360
  54.3012        370
  54.3198        340
  54.3384        367
  54.3570        362
  54.3755        381
  54.3941        355
  54.4127        376
  54.4313        366
  54.4498        393
  54.4684        414
  54.4870        365
  54.5056        375
  54.5241        414
  54.5427        453
  54.5613        446
  54.5799        528
  54.5985        603
  54.6170        847
  54.6356       1141
  54.6542       1086
  54.6728        803
  54.6913        606
  54.7099        482
  54.7285        475
  54.7471        541
  54.7656        640
  54.7842        769
  54.8028        740
  54.8214        609
  54.8399        525
  54.8585        457
  54.8771        422
  54.8957        384
  54.9142        360
  54.9328        348
  54.9514        380
  54.9700        368
  54.9886        404
  55.0071        353
  55.0257        375
  55.0443        368
  55.0629        330
  55.0814        367
  55.1000        372
  55.1186        390
  55.1372        301
  55.1557        329
  55.1743        347
  55.1929        323
  55.2115        296
  55.2300        339
  55.2486        356
  55.2672        322
  55.2858        335
  55.3043        353
  55.3229        367
  55.3415        329
  55.3601        371
  55.3787        346
  55.3972        335
  55.4158        353
  55.4344        370
  55.4530        377
  55.4715        347
  55.4901        351
  55.5087        328
  55.5273        332
  55.5458        325
  55.5644        329
  55.5830        303
  55.6016        339
  55.6201        316
  55.6387        346
  55.6573        344
  55.6759        337
  55.6944        324
  55.7130        334
  55.7316        358
  55.7502        301
  55.7688        335
  55.7873        342
  55.8059        346
  55.8245        338
  55.8431        317
  55.8616        349
  55.8802        336
  55.8988        337
  55.9174        322
  55.9359        365
  55.9545        378
  55.9731        367
  55.9917        361
  56.0102        361
  56.0288        347
  56.0474        372
  56.0660        354
  56.0846        365
  56.1031        360
  56.1217        355
  56.1403        367
  56.1589        388
  56.1774        354
  56.1960        320
  56.2146        340
  56.2332        335
  56.2517        350
  56.2703        332
  56.2889        343
  56.3075        363
  56.3260        328
  56.3446        363
  56.3632        349
  56.3818        357
  56.4003        335
  56.4189        340
  56.4375        334
  56.4561        368
  56.4747        371
  56.4932        329
  56.5118        373
  56.5304        363
  56.5490        340
  56.5675        357
  56.5861        345
  56.6047        297
  56.6233        307
  56.6418        353
  56.6604        357
  56.6790        332
  56.6976        366
  56.7161        351
  56.7347        350
  56.7533        376
  56.7719        382
  56.7904        358
  56.8090        370
  56.8276        387
  56.8462        412
  56.8648        423
  56.8833        439
  56.9019        461
  56.9205        482
  56.9391        435
  56.9576        386
  56.9762        396
  56.9948        419
  57.0134        421
  57.0319        415
  57.0505        422
  57.0691        377
  57.0877        437
  57.1062        378
  57.1248        389
  57.1434        339
  57.1620        362
  57.1805        330
  57.1991        330
  57.2177        351
  57.2363        332
  57.2549        338
  57.2734        359
  57.2920        349
  57.3106        336
  57.3292        343
  57.3477        329
  57.3663        344
  57.3849        344
  57.4035        381
  57.4220        338
  57.4406        345
  57.4592        323
  57.4778        322
  57.4963        335
  57.5149        328
  57.5335        355
  57.5521        310
  57.5706        356
  57.5892        345
  57.6078        371
  57.6264        340
  57.6450        338
  57.6635        350
  57.6821        373
  57.7007        366
  57.7193        348
  57.7378        370
  57.7564        368
  57.7750        347
  57.7936        342
  57.8121        342
  57.8307        380
  57.8493        345
  57.8679        316
  57.8864        357
  57.9050        362
  57.9236        371
  57.9422        361
  57.9607        359
  57.9793        352
  57.9979        385
  58.0165        407
  58.0351        452
  58.0536        448
  58.0722        428
  58.0908        408
  58.1094        451
  58.1279        433
  58.1465        460
  58.1651        436
  58.1837        450
  58.2022        445
  58.2208        485
  58.2394        518
  58.2580        574
  58.2765        662
  58.2951        820
  58.3137       1102
  58.3323       1509
  58.3508       2001
  58.3694       2091
  58.3880       1611
  58.4066       1182
  58.4252        822
  58.4437        808
  58.4623        853
  58.4809        957
  58.4995       1123
  58.5180       1277
  58.5366       1266
  58.5552        894
  58.5738        702
  58.5923        557
  58.6109        547
  58.6295        419
  58.6481        431
  58.6666        411
  58.6852        422
  58.7038        393
  58.7224        375
  58.7409        364
  58.7595        395
  58.7781        371
  58.7967        380
  58.8153        335
  58.8338        377
  58.8524        375
  58.8710        360
  58.8896        375
  58.9081        362
  58.9267        356
  58.9453        394
  58.9639        382
  58.9824        351
  59.0010        338
  59.0196        341
  59.0382        364
  59.0567        371
  59.0753        364
  59.0939        371
  59.1125        347
  59.1310        358
  59.1496        388
  59.1682        358
  59.1868        362
  59.2054        343
  59.2239        343
  59.2425        379
  59.2611        320
  59.2797        352
  59.2982        357
  59.3168        375
  59.3354        344
  59.3540        344
  59.3725        337
  59.3911        325
  59.4097        350
  59.4283        347
  59.4468        307
  59.4654        364
  59.4840        335
  59.5026        328
  59.5211        363
  59.5397        309
  59.5583        327
  59.5769        361
  59.5955        345
  59.6140        373
  59.6326        393
  59.6512        367
  59.6698        368
  59.6883        373
  59.7069        397
  59.7255        413
  59.7441        396
  59.7626        367
  59.7812        387
  59.7998        407
  59.8184        458
  59.8369        476
  59.8555        452
  59.8741        507
  59.8927        636
  59.9112        876
  59.9298       1286
  59.9484       1695
  59.9670       1849
